Time (s),Math 1 (V)
-10,0.1138114603569688
-9.9975,-0.004382552473433879
-9.994999999999999,-0.0527012336661121
-9.9925,-0.04609991475513824
-9.99,-0.03014920660525401
-9.987500000000001,-0.004552570238953335
-9.984999999999999,0.02276900333798248
-9.9825,0.01873147758119029
-9.98,-0.0005616314702204907
-9.977499999999999,-0.01527907318185514
-9.975,0.0006670003105028901
-9.9725,-0.009163159845848954
-9.970000000000001,-0.01311431143561303
-9.967499999999999,0.02896590763951443
-9.965,-0.01297435772446161
-9.9625,0.003629563962060443
-9.960000000000001,0.007746771628583105
-9.9575,0.003967437657154876
-9.955,-0.0009681551377756536
-9.952500000000001,-0.004361698659926894
-9.949999999999999,-0.02930673883387607
-9.9475,0.003593317527998824
-9.945,0.01953602726928153
-9.942500000000001,0.01296810259009004
-9.94,-0.0006648667856411862
-9.9375,-0.002823109256986371
-9.935,-0.006692898717632617
-9.932499999999999,-0.01174839107635597
-9.93,-0.00246622102164496
-9.9275,0.001590954881040122
-9.925000000000001,0.01082777641377586
-9.922499999999999,0.01180464123278702
-9.92,-0.0009854724109940476
-9.9175,-0.006990426733570001
-9.914999999999999,0.002243589368036792
-9.9125,-0.01043961957697193
-9.91,-0.01059043085052715
-9.907500000000001,0.006253723372146762
-9.904999999999999,0.00517334250900919
-9.9025,0.002792899635310912
-9.9,0.007288025595377549
-9.897500000000001,-0.000439052188475262
-9.895,-0.007096152284802321
-9.8925,-0.01504970189836667
-9.890000000000001,-0.01395004495128696
-9.887499999999999,0.02588728316212151
-9.885,0.01842460949437791
-9.8825,0.004488925984890868
-9.880000000000001,0.0002170975307499816
-9.8775,-0.009797363240040678
-9.875,-0.01143584251328291
-9.8725,-0.007516027972951453
-9.869999999999999,0.0009786364213978101
-9.8675,0.001301575900839504
-9.865,-0.00335194265950143
-9.862500000000001,0.00916450366009563
-9.859999999999999,0.00550482308553692
-9.8575,0.002135162423986776
-9.855,-0.004074758636583685
-9.852499999999999,-0.004553440092829569
-9.85,-0.0008083375876361845
-9.8475,0.0007557053780030368
-9.845000000000001,0.009487667818999663
-9.842499999999999,0.008693157210605639
-9.84,-0.01410447493154034
-9.8375,0.002942360647506444
-9.835000000000001,0.02236061402918566
-9.8325,-0.05219775459354104
-9.83,-0.009884504477627752
-9.827500000000001,0.01658578743141927
-9.824999999999999,0.01042632908467442
-9.8225,0.01706004566102225
-9.82,-0.0001496818691662574
-9.817500000000001,-0.003701369283290491
-9.815,-0.007692658516785507
-9.8125,0.000360383827647196
-9.81,-0.001348875409911372
-9.807499999999999,-0.005644727921629347
-9.805,0.003633460708154989
-9.8025,0.005307235581759408
-9.800000000000001,0.01655116026285591
-9.797499999999999,0.005329768923941216
-9.795,-0.008997835183223425
-9.7925,-0.0123862640300482
-9.789999999999999,-0.01080503734786265
-9.7875,0.006700271910435703
-9.785,0.007792322030847669
-9.782500000000001,-0.007645356444492959
-9.779999999999999,0.005079486304342773
-9.7775,0.007337437762492346
-9.775,-0.001154661506902382
-9.772500000000001,-0.01416660801279671
-9.77,-0.01297151895405174
-9.7675,0.005251141457958063
-9.765000000000001,0.01140109731986613
-9.762499999999999,0.006872243127814692
-9.76,0.006931715230217452
-9.7575,-8.331963202740742e-06
-9.755000000000001,-0.006571295240296923
-9.7525,-0.006192699246392417
-9.75,-0.01640670523448763
-9.7475,0.003607315231093644
-9.744999999999999,0.008869911160539212
-9.7425,0.005033760006496913
-9.74,0.008168539463744313
-9.737500000000001,-0.004608717255852596
-9.734999999999999,0.007817051376449821
-9.7325,-0.01661098247839959
-9.73,-0.01401380021569387
-9.727499999999999,0.009336128795795958
-9.725,0.01134701935728864
-9.7225,0.007586029513126857
-9.720000000000001,0.005496271452248503
-9.717499999999999,-0.007978912200842542
-9.715,-0.01786041714232688
-9.7125,0.002832146818675798
-9.710000000000001,0.0107500800318336
-9.7075,-0.005693814451094993
-9.705,0.01018636645374032
-9.702500000000001,0.01788103861379806
-9.699999999999999,-0.005674956816551365
-9.6975,-0.01131074680182943
-9.695,-0.01515152414960578
-9.692500000000001,-0.008388311004731079
-9.69,-0.002858067408991231
-9.6875,0.01286009601355176
-9.685,0.01520373795684668
-9.682499999999999,0.003668220870392569
-9.68,-0.005862348895804296
-9.6775,-0.008876249857331328
-9.675000000000001,-0.008540926345558491
-9.672499999999999,0.003412023463669643
-9.67,0.008190296043483642
-9.6675,0.01721671412510442
-9.664999999999999,-0.001383063100979464
-9.6625,-0.03893937945492669
-9.66,0.01265660454645655
-9.657500000000001,0.01002751619048804
-9.654999999999999,0.00948803279348444
-9.6525,-0.02842004666550725
-9.65,-0.002313712253018064
-9.647500000000001,0.01154482810338393
-9.645,0.009529371713733416
-9.6425,0.01151540384781946
-9.640000000000001,0.005553935603955666
-9.637499999999999,0.001397832754491304
-9.635,-0.01967132871835795
-9.6325,-0.01475938278044869
-9.630000000000001,-0.0009788678908193571
-9.6275,0.008249776808828969
-9.625,0.01873642357996656
-9.6225,0.006409207861856183
-9.619999999999999,-0.004455683451772939
-9.6175,-0.00846369528870218
-9.615,-0.008620854649453152
-9.612500000000001,-0.009559455993420422
-9.609999999999999,0.002366612766586116
-9.6075,0.007544183268727418
-9.605,0.01270315534489149
-9.602499999999999,0.007335487936210559
-9.6,-0.005824156857587378
-9.5975,-0.005809796367004997
-9.595000000000001,-0.003536142925368133
-9.592499999999999,-0.01202947884998993
-9.59,-0.008036353093510617
-9.5875,0.009191684065379941
-9.585000000000001,0.01772408927868411
-9.5825,0.01152010291396866
-9.58,-0.007805376712274266
-9.577500000000001,-0.00907258001861635
-9.574999999999999,-0.01020478628125408
-9.5725,-0.006596971433841819
-9.57,0.005687647205505411
-9.567500000000001,0.01181422373527626
-9.565,0.01136910857838549
-9.5625,-0.005977780355953332
-9.56,-0.007299174204320124
-9.557499999999999,-0.004889133983928927
-9.555,-5.002763412355339e-05
-9.5525,-0.006923191271108221
-9.550000000000001,-0.00225770340231154
-9.547499999999999,0.004432015289447257
-9.545,0.01768971602804769
-9.5425,0.02370642187775146
-9.539999999999999,-0.02820105760929311
-9.5375,-0.02173174858218113
-9.535,0.001670067623720631
-9.532500000000001,0.0003127349564534603
-9.529999999999999,0.001864594159987656
-9.5275,0.01441231538738477
-9.525,0.0108400958473719
-9.522500000000001,0.00328960122406737
-9.52,-0.0005118995052103745
-9.5175,-0.00157915722324835
-9.515000000000001,-0.009823946633059525
-9.512499999999999,-0.01086215399190874
-9.51,-0.004839854093618218
-9.5075,-0.0009423402020974162
-9.505000000000001,0.009230573928389132
-9.5025,0.02390182012266377
-9.5,-0.006059214134129901
-9.4975,-0.01155352122143469
-9.494999999999999,-0.008873026224963944
-9.4925,0.001864906459361404
-9.49,-0.005916244036717222
-9.487500000000001,0.002306212236824158
-9.484999999999999,0.008399267140913271
-9.4825,-0.003482002525790628
-9.48,0.008802418985518572
-9.477499999999999,-0.001172502400694956
-9.475,-0.004039585526490055
-9.4725,-0.003417723625054362
-9.470000000000001,-0.004002166249825742
-9.467499999999999,-0.00263403731789652
-9.465,0.003103529264081201
-9.4625,0.01018334996026855
-9.460000000000001,0.006440010638117222
-9.4575,0.002677250270743908
-9.455,-0.006001836520848415
-9.452500000000001,-0.002298134448215508
-9.449999999999999,-0.01079825987956104
-9.4475,-0.005161784185081147
-9.445,0.01361788132274793
-9.442500000000001,0.008180354296662581
-9.44,-0.00107964982666591
-9.4375,-0.001618254360550265
-9.435,-0.001165821567151025
-9.432499999999999,-0.02182406922744936
-9.43,0.001077017630550197
-9.4275,0.01679584779581728
-9.425000000000001,0.004844101169457228
-9.422499999999999,0.003221314495610621
-9.42,0.001422384042423791
-9.4175,-0.001859168986063837
-9.414999999999999,-0.006479837390685002
-9.4125,-0.009742394331215716
-9.41,0.007859766498049764
-9.407500000000001,0.01065772369615565
-9.404999999999999,-0.05211187655569775
-9.4025,0.01748819981382826
-9.4,0.02747935635406894
-9.397500000000001,0.01157264959623151
-9.395,0.001751013223024893
-9.3925,-0.02134458497674606
-9.390000000000001,-0.01220180268592978
-9.387499999999999,0.006243061879654985
-9.385,0.01420615079592063
-9.3825,0.009186232766595508
-9.380000000000001,0.003925479711785815
-9.3775,-0.005740401894027317
-9.375,-0.02160563420854818
-9.3725,-0.02058295400625101
-9.369999999999999,0.0218190273031714
-9.3675,0.01679999077207756
-9.365,0.002186872027373502
-9.362500000000001,0.0007146738428178419
-9.359999999999999,-0.00856089247497231
-9.3575,-0.001930209373709739
-9.355,0.003160245998637117
-9.352499999999999,-0.004882824467596654
-9.35,-0.005656986389386854
-9.3475,-0.003705849760155215
-9.345000000000001,0.004771055539151256
-9.342499999999999,0.01211277962356631
-9.34,0.005576818254754676
-9.3375,-0.009411888650644695
-9.335000000000001,-0.0001003830198163958
-9.3325,-0.01822168603508039
-9.33,-0.0001346371535299335
-9.327500000000001,0.003820524196019656
-9.324999999999999,0.01002620587674769
-9.3225,0.01455859155799769
-9.32,0.001878167034693885
-9.317500000000001,-0.005208545014078058
-9.315,-0.01191602108097287
-9.3125,-0.003119048673484732
-9.31,-0.00747439635680973
-9.307499999999999,0.000372056495576869
-9.305,0.01134797977357913
-9.3025,0.01482782714901584
-9.300000000000001,-0.002561454561367372
-9.297499999999999,0.003274598546892657
-9.295,-0.01094389885859621
-9.2925,-0.01566240768966079
-9.289999999999999,-0.004739391226572016
-9.2875,0.01138463177983749
-9.285,0.01018689682931358
-9.282500000000001,-0.002696314916904226
-9.279999999999999,0.00894729580422721
-9.2775,0.00295506095092883
-9.275,-0.004449241798434012
-9.272500000000001,-0.01581197582935038
-9.27,-0.002792423061084527
-9.2675,0.0005115028765463311
-9.265000000000001,0.01842452941044063
-9.262499999999999,-0.01044333034703358
-9.26,-0.01598757607888948
-9.2575,0.01179865309210698
-9.255000000000001,0.01007376677004734
-9.2525,-0.002940982063751527
-9.25,-0.006130706737517842
-9.2475,0.001579543681142501
-9.244999999999999,0.003532776976660583
-9.2425,0.002804219515107972
-9.24,0.007845553257849634
-9.237500000000001,0.004335684686020377
-9.234999999999999,-0.004906763765834456
-9.2325,-0.0337150117752492
-9.23,-0.006760455760217847
-9.227499999999999,0.01549668855909901
-9.225,0.01686390334150513
-9.2225,0.01923961378700904
-9.220000000000001,-0.008746359512145131
-9.217499999999999,-0.004027181308028985
-9.215,-0.005134277825232626
-9.2125,-0.007751117832933076
-9.210000000000001,-0.007722832056839329
-9.2075,-0.0004445818988445244
-9.205,0.006407989564977849
-9.202500000000001,0.01044257251315842
-9.199999999999999,-0.002922814855498937
-9.1975,0.01715426047955849
-9.195,-0.010496178802956
-9.192500000000001,-0.01986684715065662
-9.19,-0.01097904880706749
-9.1875,0.006903306016910419
-9.185,0.01654748433521885
-9.182499999999999,0.01542644986436439
-9.18,0.0005226322065971842
-9.1775,-0.006775841608314684
-9.175000000000001,-0.01506827156148041
-9.172499999999999,-0.01194788879974301
-9.17,-0.004115386377727088
-9.1675,0.006481908183368063
-9.164999999999999,0.01598873319453565
-9.1625,0.02567229029808177
-9.16,-0.002389850553621274
-9.157500000000001,-0.01931633890264165
-9.154999999999999,-0.01528856809314262
-9.1525,-0.003722552550194038
-9.15,-0.0005399008610309313
-9.147500000000001,0.01349043157667759
-9.145,0.004393131725713957
-9.1425,0.006024375856281457
-9.140000000000001,0.002089024761959874
-9.137499999999999,-3.857385176766287e-05
-9.135,-0.01136487948016121
-9.1325,-0.01495492122645121
-9.130000000000001,-0.006058473741743751
-9.1275,0.005652291990229283
-9.125,0.01160139128794899
-9.1225,0.00692736524780696
-9.119999999999999,0.0005376181373312843
-9.1175,0.0003241835148516833
-9.115,0.000126437103156898
-9.112500000000001,-0.008494591220870254
-9.109999999999999,-0.008050923108636112
-9.1075,-0.0005060846462937117
-9.105,0.01496510399583762
-9.102499999999999,0.005772194144279433
-9.1,-0.005925593239592448
-9.0975,0.003121402518844015
-9.095000000000001,-0.005714085852912852
-9.092499999999999,-0.006427759312786516
-9.09,-0.004155454312903687
-9.0875,0.004604088609487501
-9.085000000000001,0.01423166390020478
-9.0825,0.009756611175385501
-9.08,-0.0146831729453179
-9.077500000000001,0.002042274272848267
-9.074999999999999,-0.001685870461705387
-9.0725,-0.01290238212180756
-9.07,-0.01160252570182017
-9.067500000000001,0.00612043204368725
-9.065,0.01814364332976273
-9.0625,0.01293941294064901
-9.06,-0.00235422169001783
-9.057499999999999,-0.008659153165444003
-9.055,-0.003126319286835355
-9.0525,-0.01069330781864939
-9.050000000000001,-0.009039640866898555
-9.047499999999999,0.003547516890888633
-9.045,0.006357844622194106
-9.0425,0.004811727764482304
-9.039999999999999,0.01730229706453219
-9.0375,0.006203116764452414
-9.035,-0.02756272008657113
-9.032500000000001,-0.01104261510976375
-9.029999999999999,0.003029364040657499
-9.0275,0.01078985155767645
-9.025,-0.001469188524276477
-9.022500000000001,0.01415612479955992
-9.02,0.007456949892909442
-9.0175,-0.006193964578167701
-9.015000000000001,-0.0147046778418172
-9.012499999999999,-0.01179904836342096
-9.01,0.002283045894807012
-9.0075,0.01671766254974423
-9.005000000000001,0.01074768006109809
-9.0025,-0.006071714362246995
-9,-0.0008012911256905995
-8.9975,0.003394874292501335
-8.994999999999999,-0.01141722294338667
-8.9925,-0.02252805590157649
-8.99,0.003830426421116579
-8.987500000000001,0.01112071263013245
-8.984999999999999,0.01133433363281508
-8.9825,0.01123207606593288
-8.98,0.002558723613108306
-8.977499999999999,-0.003458071621290339
-8.975,-0.006239643085352079
-8.9725,-0.01110940344666366
-8.970000000000001,-0.008394164987648079
-8.967499999999999,-0.006337394187989491
-8.965,-0.005303331567950401
-8.9625,0.03538824819642997
-8.960000000000001,0.02024709939138471
-8.9575,-0.01184484057007723
-8.955,-0.009410719822721412
-8.952500000000001,-0.01768283568658858
-8.949999999999999,-0.01140819673522082
-8.9475,-0.0006086044212692633
-8.945,0.01173467058726053
-8.942500000000001,0.01339285569340479
-8.94,0.008715348577926413
-8.9375,-0.0005002438379791159
-8.935,-0.007629618652736966
-8.932499999999999,-0.01553226159693368
-8.93,-0.01210075045222938
-8.9275,0.004400893712652555
-8.925000000000001,0.02306782403068168
-8.922499999999999,0.01177585240156977
-8.92,-0.01997766881694888
-8.9175,0.004883231379032311
-8.914999999999999,0.004883875565285756
-8.9125,-0.01190821991537379
-8.91,0.002029902236156833
-8.907500000000001,-0.0004960852497430659
-8.904999999999999,0.003108520309081799
-8.9025,0.009475404873234441
-8.9,0.005770889927450424
-8.897500000000001,-0.001970489136151951
-8.895,-0.01441359506635431
-8.8925,-0.006553135968231112
-8.890000000000001,0.002879043893872161
-8.887499999999999,-0.0014805347996446
-8.885,0.004023759176536979
-8.8825,0.002160714109343993
-8.880000000000001,0.0006958877397184428
-8.8775,0.01694732340309356
-8.875,0.01361969313181969
-8.8725,-0.02895771636932342
-8.869999999999999,-0.04885296671375333
-8.8675,0.01675440398040007
-8.865,0.03420695982029364
-8.862500000000001,0.007527923466883597
-8.859999999999999,-0.004304925631193642
-8.8575,0.00193770546258645
-8.855,-0.003117440629531177
-8.852499999999999,-0.00783792107963209
-8.85,-0.008476950007899177
-8.8475,0.0009997973173691429
-8.845000000000001,0.005894701976522318
-8.842499999999999,0.009477180595087918
-8.84,-0.005788333245037061
-8.8375,0.002015816999154961
-8.835000000000001,0.005956408931314861
-8.8325,-0.009941220967196048
-8.83,-0.01348457667933606
-8.827500000000001,0.005485397670497256
-8.824999999999999,0.01179297543685507
-8.8225,0.009290057978857454
-8.82,0.002701324823676837
-8.817500000000001,-0.006929154594913974
-8.815,-0.01168617925715369
-8.8125,-0.01296098531353942
-8.81,0.004434263084257642
-8.807499999999999,-0.002131178350192365
-8.805,-0.001360947889211983
-8.8025,0.01218588294828352
-8.800000000000001,0.02895408210630821
-8.797499999999999,0.01260403930115197
-8.795,-0.03179110286174253
-8.7925,-0.02566854956032881
-8.789999999999999,0.001281531840759379
-8.7875,0.009764422993315886
-8.785,0.02153741314363527
-8.782500000000001,0.02343016224964666
-8.779999999999999,-0.03824981948298706
-8.7775,-0.01622868742742697
-8.775,0.01446085877468792
-8.772500000000001,0.006284786737672559
-8.77,-0.003147800544192299
-8.7675,-0.005062703726717846
-8.765000000000001,-0.003723896000336564
-8.762499999999999,0.01518811727648496
-8.76,0.011307924913007
-8.7575,-0.00928653007259825
-8.755000000000001,-0.006145430751727869
-8.7525,-0.004824891676270807
-8.75,-0.002500474579800068
-8.7475,-0.0007491728166580625
-8.744999999999999,0.004380032668003598
-8.7425,0.01288499476733895
-8.74,0.00430877660807302
-8.737500000000001,-0.01086481482815511
-8.734999999999999,-0.01167970452446367
-8.7325,-0.0031372580392984
-8.73,-0.001191034427064639
-8.727499999999999,-7.71653469010346e-05
-8.725,0.0109564294055593
-8.7225,0.00822910846599282
-8.720000000000001,0.006232768754038056
-8.717499999999999,-0.01175176358321454
-8.715,-0.004651522452166806
-8.7125,0.003784625149366697
-8.710000000000001,-0.005513483822749195
-8.7075,-0.01283900618514259
-8.705,0.006744569011246886
-8.702500000000001,0.01276494339708478
-8.699999999999999,0.009786714379637884
-8.6975,0.007098455695469607
-8.695,-0.005075486008892655
-8.692500000000001,-0.02416283818469793
-8.69,-0.01258337754789008
-8.6875,0.02383419957235101
-8.685,0.01390695389835679
-8.682499999999999,-0.003338867407853641
-8.68,-0.00565713165689321
-8.6775,-0.006347073096247774
-8.675000000000001,0.002280934719547877
-8.672499999999999,-0.01274529527767512
-8.67,-0.006397389128630633
-8.6675,0.002469783492885649
-8.664999999999999,0.01721960139067589
-8.6625,0.0154115347192738
-8.66,0.01729600324106646
-8.657500000000001,-0.01860042632739809
-8.654999999999999,-0.04669275878902544
-8.6525,-0.005925702703690393
-8.65,0.01210388086624097
-8.647500000000001,0.01763975060013749
-8.645,0.02110202549495562
-8.6425,-0.01150194471428803
-8.640000000000001,0.005512628285861628
-8.637499999999999,0.01966350747883956
-8.635,-0.006689384378264026
-8.6325,-0.02136705066070032
-8.630000000000001,-0.009409517668796425
-8.6275,0.0003774059084974047
-8.625,0.005618761615800967
-8.6225,0.007298051307698467
-8.619999999999999,0.0007548801735741554
-8.6175,-0.001720975916275058
-8.615,-0.00612704642538664
-8.612500000000001,-0.003076542105964346
-8.609999999999999,0.001268191117478605
-8.6075,-0.002031691959318486
-8.605,0.008293942195182941
-8.602499999999999,0.002117532275105704
-8.6,0.003484649223069016
-8.5975,-0.003799787367428905
-8.595000000000001,-0.006870457650449087
-8.592499999999999,-0.005210933803505323
-8.59,0.001630105091769213
-8.5875,-0.007358314362879092
-8.585000000000001,0.01165705253387837
-8.5825,0.01344314598143873
-8.58,0.0002828993073409926
-8.577500000000001,-0.008467196682313593
-8.574999999999999,-0.003824381311397783
-8.5725,0.001343171638585162
-8.57,-0.01021745600423572
-8.567500000000001,-0.003701531712313182
-8.565,0.01054815121864071
-8.5625,0.01117873624501268
-8.56,0.004896929175719412
-8.557499999999999,-0.007615112405454319
-8.555,-0.008811906553765347
-8.5525,-0.003643140347322032
-8.550000000000001,-0.004750351521271073
-8.547499999999999,-0.01389646436580484
-8.545,0.02888398470018417
-8.5425,0.02973780269752709
-8.539999999999999,-0.01561387001326467
-8.5375,-0.007622026535162615
-8.535,-0.01261366231140456
-8.532500000000001,-0.007225165339610495
-8.529999999999999,-0.00686026515195259
-8.5275,0.006572638550249968
-8.525,0.01273636614953177
-8.522500000000001,0.009817081645929602
-8.52,0.00288374393122713
-8.5175,-0.0005535406966744772
-8.515000000000001,-0.009988867244088798
-8.512499999999999,-0.01135951481065514
-8.51,-0.005253796833450976
-8.5075,0.007338913872977756
-8.505000000000001,-0.00408814417396612
-8.5025,0.00858439424844617
-8.5,0.009456159238597271
-8.4975,-0.0003254143906713522
-8.494999999999999,-0.007711724755968445
-8.4925,-0.002909344315911936
-8.49,-0.00442524925411259
-8.487500000000001,-0.001075949546069704
-8.484999999999999,0.004713536171037412
-8.4825,0.0111819164385461
-8.48,-0.003787370943159913
-8.477499999999999,-0.00517163902522085
-8.475,0.004892325041576809
-8.4725,-0.002169328134672674
-8.470000000000001,-0.01218177328668683
-8.467499999999999,-0.006509108572309161
-8.465,0.01493521686755171
-8.4625,0.01199789231150393
-8.460000000000001,-4.598634127651186e-05
-8.4575,0.0002102142711345193
-8.455,-0.01041864942070845
-8.452500000000001,0.00499216986465414
-8.449999999999999,-0.01095836018418568
-8.4475,-0.001363527567487646
-8.445,0.02150514681892514
-8.442500000000001,-0.02817822648588463
-8.44,0.00879361148688804
-8.4375,0.004924834440010016
-8.435,0.005964842656025798
-8.432499999999999,-0.004523639985594402
-8.43,-0.008379643587946881
-8.4275,-1.322167477544139e-05
-8.425000000000001,0.00490718303811638
-8.422499999999999,0.008883811808613858
-8.42,-0.001765725675802866
-8.4175,-0.00249957871164561
-8.414999999999999,-0.003894484207546651
-8.4125,-0.009217864089267733
-8.41,-0.003139656158269321
-8.407500000000001,0.006491827219588409
-8.404999999999999,0.01354640752175229
-8.4025,0.006354865039283137
-8.4,-0.002776913003501
-8.397500000000001,-0.002609953010489118
-8.395,-0.01854652181516922
-8.3925,-0.00173080595712752
-8.390000000000001,0.006676788456111926
-8.387499999999999,0.006871871844187686
-8.385,-0.0106317714080198
-8.3825,0.01320285412033426
-8.380000000000001,0.007485957948711333
-8.3775,0.004783311488827101
-8.375,-0.01712347620580229
-8.3725,0.007778602926825972
-8.369999999999999,0.002409392455580598
-8.3675,-0.0215856108836859
-8.365,0.008615836398824852
-8.362500000000001,0.0131918580621709
-8.359999999999999,0.001059721496704195
-8.3575,-0.005524605035398849
-8.355,-0.001309020030792806
-8.352499999999999,0.01549241725441683
-8.35,-0.03386525146279049
-8.3475,-0.0137018301027943
-8.345000000000001,0.01963454808037457
-8.342499999999999,0.01244673604186821
-8.34,0.009442913964982532
-8.3375,0.000501084604458104
-8.335000000000001,0.001577657154005078
-8.3325,-0.01356463693545638
-8.33,-0.01331474806652796
-8.327500000000001,-0.00590528519503162
-8.324999999999999,0.01375573124379475
-8.3225,0.01068458814191533
-8.32,0.007614716581172454
-8.317500000000001,-0.0006351737854728172
-8.315,-0.01164282254161886
-8.3125,-0.01076523376661475
-8.31,-0.00626861888270265
-8.307499999999999,0.008310470811326751
-8.305,0.01205116067161478
-8.3025,0.00221248423566971
-8.300000000000001,0.000195330607869324
-8.297499999999999,-0.01118550539865798
-8.295,-0.006358037780490298
-8.2925,0.004113388363364648
-8.289999999999999,0.005997485667345055
-8.2875,-0.002095947810498159
-8.285,0.004530495657766629
-8.282500000000001,0.007096475562481738
-8.279999999999999,0.01155975817439284
-8.2775,2.741657785887257e-05
-8.275,-0.01020670619728322
-8.272500000000001,-0.02664358593345862
-8.27,-0.0132118422258413
-8.2675,0.02406859330791675
-8.265000000000001,0.005831694564217486
-8.262499999999999,0.01023391406686706
-8.26,-0.005053875615006934
-8.2575,0.004582459826139577
-8.255000000000001,-0.006753594378178812
-8.2525,-0.0121477044982951
-8.25,-0.004948899462746041
-8.2475,0.005762669743385908
-8.244999999999999,0.01346203236194069
-8.2425,0.008644801891121977
-8.24,-0.004842682828316878
-8.237500000000001,-0.00744732578642413
-8.234999999999999,-0.01178648054758857
-8.2325,-0.0001242224065845551
-8.23,0.00381170884110126
-8.227499999999999,0.00788798907478545
-8.225,0.01467203389920971
-8.2225,-0.001555007612977683
-8.220000000000001,-0.03612682953019848
-8.217499999999999,0.01961848492935973
-8.215,0.00289511918037991
-8.2125,0.002569351633242717
-8.210000000000001,-0.01768053798589499
-8.2075,-0.0005143494309503096
-8.205,0.01604074948456645
-8.202500000000001,0.00891551138814033
-8.199999999999999,0.0009322742288844569
-8.1975,3.355346617265629e-05
-8.195,-0.0002791235650110396
-8.192500000000001,-0.008780080802835905
-8.19,-0.01456420044838012
-8.1875,-0.01293100028852593
-8.185,0.01392760972733272
-8.182499999999999,0.01744140980806065
-8.18,0.009674948265877352
-8.1775,-0.00307147663742552
-8.175000000000001,-0.008247232723389073
-8.172499999999999,-0.01951034417379345
-8.17,-0.0007604131536833324
-8.1675,0.007912957684626661
-8.164999999999999,0.007713879101950634
-8.1625,0.00888793044809973
-8.16,0.005808328153437475
-8.157500000000001,0.002513500816838178
-8.154999999999999,-0.01445139625162504
-8.1525,-0.01446274065512932
-8.15,-0.006692036548511312
-8.147500000000001,0.002764469033823757
-8.145,0.01546921536640145
-8.1425,0.01153659241235457
-8.140000000000001,0.001467530466628696
-8.137499999999999,-0.004588363834712648
-8.135,-0.01119442980162052
-8.1325,-0.01753049111405831
-8.130000000000001,0.01059434533140711
-8.1275,0.01370550758279867
-8.125,0.005137359978075141
-8.1225,-0.006104255160387098
-8.119999999999999,-0.00534116626002973
-8.1175,0.00763122199420518
-8.115,-0.005909864315481492
-8.112500000000001,-0.01236848222254364
-8.109999999999999,0.007320310088372718
-8.1075,0.008898047922691473
-8.105,-0.002556679422151544
-8.102499999999999,0.003129259643443251
-8.1,0.003802520759346317
-8.0975,0.01104770049820567
-8.095000000000001,0.002769062928642093
-8.092499999999999,-0.04360054973341089
-8.09,-0.003754201062966672
-8.0875,0.002488285778422879
-8.085000000000001,0.01422954880088497
-8.0825,0.0189656207442835
-8.08,0.01101134175997054
-8.077500000000001,-0.01082531917346067
-8.074999999999999,-0.003244485931445214
-8.0725,-0.007956227040268047
-8.07,-0.0064197074799635
-8.067500000000001,0.002978819493642006
-8.065,0.002821926421845645
-8.0625,0.01017333400728464
-8.06,0.00227156707450864
-8.057499999999999,-0.003375891382684193
-8.055,-0.01031931201380533
-8.0525,-0.01285671158861409
-8.050000000000001,0.0168355550204108
-8.047499999999999,-0.001106056210415394
-8.045,-0.004528217445826137
-8.0425,0.01311091323990656
-8.039999999999999,-0.005267412848679168
-8.0375,-0.007210034849455436
-8.035,0.001337420306683015
-8.032500000000001,-0.0005885911392968764
-8.029999999999999,-0.005253603863466613
-8.0275,0.005875221939691964
-8.025,0.007290413653866665
-8.022500000000001,0.0134207966898102
-8.02,0.001717374486463328
-8.0175,-0.01986591488959378
-8.015000000000001,-0.01292292026938459
-8.012499999999999,0.005070295672873412
-8.01,0.0005822246003716409
-8.0075,-0.005394039986815743
-8.005000000000001,0.01385828167291135
-8.0025,0.01061085854430629
-8,-0.00312114994309118
-7.9975,-0.006479601234581777
-7.995,-0.0008157752687939259
-7.9925,-0.007114989314428752
-7.99,-0.002183283120152897
-7.9875,0.006692546108774504
-7.985,0.009163988045934521
-7.9825,2.974001375381206e-05
-7.98,0.001226244518537928
-7.9775,-0.003106666965302241
-7.975,-0.009717043946895791
-7.9725,-0.01237862928213527
-7.97,-0.006305234937298195
-7.9675,0.02157235150911604
-7.965,0.01393461693677561
-7.9625,0.001694030955950229
-7.96,-0.000921290586942438
-7.9575,-0.00355971210393688
-7.955,-0.005175465918032672
-7.9525,-0.02495724559387066
-7.95,-0.006919723329591223
-7.9475,0.01242727426086964
-7.945,0.01402312097856496
-7.9425,0.02821660670610254
-7.94,0.01129632814912607
-7.9375,-0.04128393571955055
-7.935,-0.0192975363282722
-7.9325,-0.006559013847362806
-7.93,0.004501482596920865
-7.9275,0.01068324448867461
-7.925,0.0149510673683591
-7.9225,0.01904065609327133
-7.92,0.002335843482973544
-7.9175,-0.006271065032281969
-7.915,-0.01732320142373996
-7.9125,-0.01636854994401485
-7.91,-0.001152280316920056
-7.9075,0.0107491050834209
-7.905,0.01051844690053832
-7.9025,0.008460285836747468
-7.9,0.00447028501440823
-7.8975,-0.007111206242187728
-7.895,-0.01882677466312312
-7.8925,0.008011122961096667
-7.89,0.007449248645343581
-7.8875,-0.004152891437847626
-7.885,-0.01277776854807099
-7.8825,-3.05284557842563e-05
-7.88,0.01486264379518228
-7.8775,0.007643509033861031
-7.875,-0.006253581265160538
-7.8725,-0.01907593942031278
-7.87,0.001111031112853748
-7.8675,0.007406136652115048
-7.865,0.0151179649878265
-7.8625,-0.007353264346463351
-7.86,-0.001339875656966677
-7.8575,-0.0009385927918223125
-7.855,0.001688145471821325
-7.8525,-0.004474838991698707
-7.85,-0.002655199794945253
-7.8475,0.005367568693330198
-7.845,-0.01319224731623585
-7.8425,0.007037380620284388
-7.84,0.01528518989658959
-7.8375,-0.0006933824432484638
-7.835,0.0006305115343464264
-7.8325,-0.005553722613492097
-7.83,-0.01182557247586648
-7.8275,-0.0007922796876621638
-7.825,0.01807992720224911
-7.8225,0.01518357804332047
-7.82,-0.04061941027444243
-7.8175,-0.005081727531711294
-7.815,0.03001304499432206
-7.8125,-0.006158899033251842
-7.81,-0.01368458000285538
-7.8075,-0.000216809295896954
-7.805,0.01073641897312636
-7.8025,0.01232109667070188
-7.8,0.003784766972316548
-7.7975,0.001587714321540166
-7.795,-0.01252328171293201
-7.7925,-0.0144627353597378
-7.79,-0.005208302378872906
-7.7875,0.006289779282462946
-7.785,0.009792595593345433
-7.7825,0.01138882261846085
-7.78,-0.003158883710086977
-7.7775,-0.0003951962593512504
-7.775,-0.009951803486451114
-7.7725,-0.004998050173971145
-7.77,-0.005647807112136059
-7.7675,0.0005940811608758875
-7.765,0.01094844355392416
-7.7625,0.01225069854359146
-7.76,-0.006984449995330465
-7.7575,-0.00428926671729392
-7.755,0.002537058602274198
-7.7525,-0.01318975482493059
-7.75,-0.002648936189322292
-7.7475,0.006152011998428815
-7.745,0.01093601931246658
-7.7425,0.006133473197240357
-7.74,0.002137354215837295
-7.7375,-0.002155808209318062
-7.735,-0.002744966876940964
-7.7325,-0.008248678923962447
-7.73,-0.01749411022826973
-7.7275,0.01389959664691522
-7.725,0.006177431329188175
-7.7225,0.007570241298584373
-7.72,-0.005554021949763688
-7.7175,-0.005633361854250979
-7.715,-0.005586277864096343
-7.7125,-0.003389005994309439
-7.71,-0.003459526895371432
-7.7075,0.004247297498195863
-7.705,0.0115368681853569
-7.7025,0.01584059987394154
-7.7,0.0004568679401526395
-7.6975,-0.00697589475652187
-7.695,-0.008855659986284114
-7.6925,-0.01240320012204979
-7.69,0.008269509629083963
-7.6875,-0.01571267381480688
-7.685,0.001567352060211369
-7.6825,0.01522100772528318
-7.68,0.003195882902019423
-7.6775,-0.002060561945899644
-7.675,0.007624159382623689
-7.6725,0.003622112335714514
-7.67,-0.01188503034109407
-7.6675,-0.00815981679697984
-7.665,-0.001605038250154864
-7.6625,0.003333128381321724
-7.66,0.01218325241802024
-7.6575,0.0125018717651383
-7.655,-0.0007799424957728949
-7.6525,-0.02616696765857008
-7.65,-0.02015760482070863
-7.6475,0.006729022657863934
-7.645,0.03220129121968314
-7.6425,0.01961092486660836
-7.64,-0.01138231267180509
-7.6375,-0.004509718116671023
-7.635,-0.008963434884753626
-7.6325,-0.01757973819738496
-7.63,-0.005080788399584191
-7.6275,0.003196133514294664
-7.625,0.0132126758018799
-7.6225,0.002885916278101936
-7.62,0.008948812809580988
-7.6175,-0.003157120581033271
-7.615,-0.008085933455682775
-7.6125,-0.002318249597985177
-7.61,-0.005869657599708689
-7.6075,0.005870953726629735
-7.605,-0.007393297373870655
-7.6025,0.01446332206985462
-7.6,0.009721281206750721
-7.5975,-0.008414399679089002
-7.595,-0.004794297095868652
-7.5925,-0.008094608826964424
-7.59,-0.003907137334849806
-7.5875,0.003267386582974705
-7.585,0.01076220279436769
-7.5825,0.009057573240877912
-7.58,-0.00568000910179522
-7.5775,-0.01262722306438612
-7.575,0.01550548457200258
-7.5725,-0.0003101208065451293
-7.57,-0.005460879557727567
-7.5675,-0.01142449508981307
-7.565,-0.01533012615025511
-7.5625,0.02125129383677639
-7.56,0.01664021793141026
-7.5575,9.904721406598566e-05
-7.555,-0.007579790724831285
-7.5525,-0.007179310966692805
-7.55,1.074566320213064e-05
-7.5475,-0.003976067305989305
-7.545,-0.001625820070433646
-7.5425,0.01255112204622988
-7.54,0.01237525137066338
-7.5375,-0.007401246627914367
-7.535,-0.01322948005332368
-7.5325,-0.01638509327037677
-7.53,0.001720416741921516
-7.5275,0.00708372221636504
-7.525,0.01035799315298992
-7.5225,0.009530802881821789
-7.52,0.00553306274618801
-7.5175,-0.004339614779172109
-7.515,-0.01231508436949462
-7.5125,-0.008037800608355279
-7.51,0.002906219105152343
-7.5075,-0.0009600255513705945
-7.505,0.002379007574952766
-7.5025,0.006815826415433747
-7.5,0.005633020245340466
-7.4975,-0.001213947766408443
-7.495,0.00335710772468673
-7.4925,-0.01344171141474023
-7.49,-0.02442417308101376
-7.4875,0.002717579490896904
-7.485,0.02346215368219725
-7.4825,0.01908803677293828
-7.48,0.001669919668206676
-7.4775,-0.006914697585737955
-7.475,-0.01132874733969407
-7.4725,-0.01900811634304723
-7.47,0.002866697348172224
-7.4675,0.004785918913699339
-7.465,0.02269454805132595
-7.4625,0.002789846606232776
-7.46,0.001444745324519931
-7.4575,-0.01020000003063447
-7.455,-0.01009823402785937
-7.4525,-0.006120706335266048
-7.45,-0.002404579264470992
-7.4475,0.006152478443323191
-7.445,0.01085500677264668
-7.4425,0.01668910847721609
-7.44,0.01636917482403329
-7.4375,-0.049670182784869
-7.435,-0.007630774544769589
-7.4325,-0.001269805756757589
-7.43,0.001346407166399215
-7.4275,0.008071975505696426
-7.425,0.01354083117137844
-7.4225,0.01007575955701291
-7.42,0.0007330387740469615
-7.4175,-0.00479390495832886
-7.415,-0.006890517220539456
-7.4125,-0.009151341663910731
-7.41,-0.002078260543176296
-7.4075,0.003217478413759898
-7.405,0.007979089300632453
-7.4025,0.008576698754966505
-7.4,-0.0009528093704146192
-7.3975,-0.003757216874319924
-7.395,-0.001098300893495701
-7.3925,-0.006162384457970745
-7.39,-0.009696719533499955
-7.3875,-0.002835158650559964
-7.385,0.01119139675106333
-7.3825,0.01787570499833323
-7.38,0.004617174620089719
-7.3775,-0.005858322401046215
-7.375,-0.01131520558155817
-7.3725,-0.008715303995970798
-7.37,-0.004445132213684658
-7.3675,0.000840624513226625
-7.365,0.01290642924617157
-7.3625,0.003382353923449326
-7.36,0.001013204802127621
-7.3575,-0.002298626682722341
-7.355,-0.006757769000387281
-7.3525,-0.001352208773594928
-7.35,0.0009777150089438187
-7.3475,-0.005006767261590831
-7.345,-0.00929919849295861
-7.3425,0.01841876228181685
-7.34,0.01195937235172904
-7.3375,-0.00124348511239412
-7.335,-0.01579099657424503
-7.3325,-0.003841229191694108
-7.33,0.01014785600533492
-7.3275,0.004468598055088807
-7.325,-0.03531896241545633
-7.3225,0.01837228079353564
-7.32,0.01846236980181771
-7.3175,0.01340882960366642
-7.315,-0.008397195643185942
-7.3125,-0.02514516598417507
-7.31,-0.008149420487609685
-7.3075,0.01345697881530968
-7.305,0.01965670284197448
-7.3025,0.003414687445371315
-7.3,-0.007585704129637812
-7.2975,-0.006163665565319812
-7.295,-0.005409025604385062
-7.2925,-0.003045123057523207
-7.29,-0.001067961016567882
-7.2875,-0.01700331446991248
-7.285,0.01409518471299266
-7.2825,0.02746257517345423
-7.28,-0.004323639005585259
-7.2775,-0.00685125560150883
-7.275,-0.009271080772082958
-7.2725,-7.780484000929617e-05
-7.27,-0.005488730942583364
-7.2675,-0.003022456189482747
-7.265,0.007485714050935758
-7.2625,0.01019151830974055
-7.26,0.002860549546241555
-7.2575,-0.0007002207938235171
-7.255,-0.007992993080912959
-7.2525,-0.01368176128469162
-7.25,0.004650080946279567
-7.2475,0.002565423385159531
-7.245,0.005121545427573648
-7.2425,0.01035280027758168
-7.24,0.003800663851553759
-7.2375,-0.008373369275906272
-7.235,-0.009161376212347848
-7.2325,-0.007972739257693763
-7.23,-0.002336544564221223
-7.2275,0.004707532458009779
-7.225,0.007343586376352637
-7.2225,0.00322798812393466
-7.22,0.009101250357218984
-7.2175,0.02026334922513353
-7.215,-0.01369935758344879
-7.2125,-0.01116459184194767
-7.21,0.006798978533611744
-7.2075,-0.04090274751083433
-7.205,-0.008933296006740629
-7.2025,0.03498193325056048
-7.2,0.01682114208629336
-7.1975,-0.008560123708116731
-7.195,-0.005171873297866452
-7.1925,-0.002022714337773038
-7.19,-0.01081524571686554
-7.1875,0.001109696780429336
-7.185,0.01103061613360371
-7.1825,0.01002986569817282
-7.18,-0.002726360071748215
-7.1775,-0.001660857445657761
-7.175,-0.002783518749288492
-7.1725,-0.008450009565668312
-7.17,-0.002786037790218499
-7.1675,0.00444283628306785
-7.165,0.005117425481351304
-7.1625,-0.005161926507553531
-7.16,0.008312518686195945
-7.1575,0.01593706201482844
-7.155,-0.002630271561514338
-7.1525,-0.01629793390825928
-7.15,-0.02512125237727334
-7.1475,0.0008860069688638496
-7.145,0.01558838824355262
-7.1425,0.02078083979340353
-7.14,0.005890498141066943
-7.1375,-0.01200550180761198
-7.135,-0.009029526986649454
-7.1325,-0.006637719771678072
-7.13,-0.005374693910668955
-7.1275,-0.004981170780815054
-7.125,0.01198030995035621
-7.1225,0.008702666755770704
-7.12,0.01484368636972837
-7.1175,0.01322030682452434
-7.115,-0.02225374697649208
-7.1125,-0.01900850073004577
-7.11,-0.01050347069637571
-7.1075,0.007065569886110849
-7.105,0.01228907409467334
-7.1025,0.01561036227707156
-7.1,0.002115496572332095
-7.0975,-0.01171468088983132
-7.095,-0.003244136492987575
-7.0925,-0.003406575634423576
-7.09,-0.01276254159460272
-7.0875,-0.002391378304179406
-7.085,0.01263173756114164
-7.0825,0.01483287650825534
-7.08,-0.0008581792190246908
-7.0775,0.0006259107735656776
-7.075,-0.005503127993762211
-7.0725,-0.007523469777350438
-7.07,-0.009511687378887091
-7.0675,0.004172288514231059
-7.065,0.01560996988823978
-7.0625,0.00482072181807438
-7.06,0.001468130844278849
-7.0575,-0.0002227402384799166
-7.055,-0.002825812482182177
-7.0525,-0.01109569090516155
-7.05,-0.02015135033055638
-7.0475,0.001711160529927115
-7.045,0.01896258451269661
-7.0425,0.008801973193720596
-7.04,0.004104152429896688
-7.0375,-0.001190993068961993
-7.035,-0.01099666593714934
-7.0325,-0.01209719240647405
-7.03,-0.003486919019546173
-7.0275,0.00287133271325842
-7.025,0.0123751608766037
-7.0225,0.01496317070772751
-7.02,0.001476622915142111
-7.0175,-0.005721984157165454
-7.015,-0.005886946037545578
-7.0125,-0.005769371922441468
-7.01,-0.009856402736857403
-7.0075,-0.009496015666962451
-7.005,0.0155968783823972
-7.0025,0.02212308456168647
-7,0.002900280551686318
-6.9975,-0.008892818839960027
-6.995,-0.01147742421468728
-6.9925,-0.009983180400352886
-6.99,-0.007712858696961269
-6.9875,0.004561709977482373
-6.985,0.01537751040413735
-6.9825,0.00872461780689643
-6.98,0.005226245774636895
-6.9775,-0.004360156235752978
-6.975,-0.01223217871663585
-6.9725,-0.01007922328037431
-6.97,-0.007551823958642116
-6.9675,-0.00376018681518575
-6.965,0.01811004273542149
-6.9625,0.01832770763945486
-6.96,0.002737111468838815
-6.9575,-0.005655096462505225
-6.955,-0.008370480588807841
-6.9525,-0.01238603469732521
-6.95,-0.000381769212413481
-6.9475,-0.0004841252794717507
-6.945,0.003923686760045789
-6.9425,0.01236639854016906
-6.94,0.00609838872214425
-6.9375,-0.004751818890381792
-6.935,-0.004386420031201003
-6.9325,-0.006804484882118083
-6.93,-0.004953189859769052
-6.9275,0.001851117489562203
-6.925,0.001269879569453403
-6.9225,0.006959516846592181
-6.92,0.01039107026484441
-6.9175,-0.003155214068085168
-6.915,-0.00643845443979916
-6.9125,-0.007144929060287856
-6.91,-0.006716586262894974
-6.9075,-0.001824381213801136
-6.905,0.01115098910059836
-6.9025,0.0153742484645466
-6.9,0.006525116046385194
-6.8975,-0.007478547175582652
-6.895,-0.01560518264714437
-6.8925,-0.005840556166761105
-6.89,0.00182163241048397
-6.8875,0.005790737585956524
-6.885,0.004852348949974202
-6.8825,0.004771026624287686
-6.88,-0.001372150657636719
-6.8775,-0.002884018254528531
-6.875,-0.004388128957237739
-6.8725,-0.007428696284988022
-6.87,-0.003414698348915161
-6.8675,0.001383257640689728
-6.865,0.008821682663429991
-6.8625,0.007856076296819661
-6.86,0.008719086922842362
-6.8575,0.001348873839603626
-6.855,-0.01014036794898716
-6.8525,-0.01638935727045375
-6.85,-0.00569260950066168
-6.8475,0.008601811476036251
-6.845,0.01000740213381191
-6.8425,0.01082066676914578
-6.84,-0.001639714338678129
-6.8375,-0.007279260450492314
-6.835,-0.006316381122528848
-6.8325,-0.003528721082234316
-6.83,0.009410720349255388
-6.8275,-0.004836285569460156
-6.825,-0.01194946859229737
-6.8225,0.005231066322184437
-6.82,0.0131679208697557
-6.8175,0.002165409987476632
-6.815,0.001905129204992285
-6.8125,-0.003178498335962537
-6.81,-0.01639036417808688
-6.8075,-0.01226705007327608
-6.805,0.01516230923666623
-6.8025,0.01413131088403182
-6.8,0.008269024591983452
-6.7975,-0.00542006190426221
-6.795,-0.01211929294658645
-6.7925,-0.007493057642876471
-6.79,-0.009404060249249314
-6.7875,0.008516491013667414
-6.785,0.01329054550331399
-6.7825,0.009691616130193087
-6.78,-0.001672140589327901
-6.7775,-0.002680613953152949
-6.775,-0.006222794922233328
-6.7725,-0.004973369332208181
-6.77,-0.01112040869275978
-6.7675,-0.006700198060892822
-6.765,0.01652770179532189
-6.7625,0.01994230006615871
-6.76,0.006913244810564475
-6.7575,-0.006508865711294261
-6.755,-0.0105674664032328
-6.7525,-0.007793480967817727
-6.75,-0.01020457759075724
-6.7475,-0.00489670700549293
-6.745,0.009417036341459789
-6.7425,0.01476357072278507
-6.74,0.008653781826331896
-6.7375,-0.005268062584488767
-6.735,-0.01635710707169154
-6.7325,-0.005159871486515771
-6.73,-0.001538838490317564
-6.7275,0.002395560343292271
-6.725,0.009150804184729073
-6.7225,0.005702506785352627
-6.72,0.006578974941989552
-6.7175,0.002175447441205882
-6.715,-0.008647696223579205
-6.7125,-0.006751841312187833
-6.71,-0.01198886772190307
-6.7075,-0.002673297045833789
-6.705,0.01423448475494476
-6.7025,0.01643793396782805
-6.7,0.00650013647149661
-6.6975,-0.009983094002395899
-6.695,-0.007325995398935685
-6.6925,-0.00783218474655892
-6.69,-0.004942256128084951
-6.6875,7.755850880627796e-05
-6.685,0.008099843642694381
-6.6825,0.00973718700879065
-6.68,0.004353926047239024
-6.6775,-0.003393676205866111
-6.675,-0.011030199363484
-6.6725,-0.005015278241737608
-6.67,-0.003178150574524985
-6.6675,-0.001324629683258655
-6.665,0.006189812752695791
-6.6625,0.0105302227033468
-6.66,0.01637045435032758
-6.6575,-0.002960900021436869
-6.655,-0.01888055154483805
-6.6525,-0.02531952412602199
-6.65,-0.002692920929672715
-6.6475,0.01653310129121064
-6.645,0.0207380657392886
-6.6425,0.005535266026883026
-6.64,-0.003820423745381759
-6.6375,-0.003320584702122253
-6.635,-0.001857202698706007
-6.6325,-0.01340273006897356
-6.63,-0.005637845454698281
-6.6275,0.00553146708990452
-6.625,0.01134726705046083
-6.6225,0.004601615562466781
-6.62,-0.001570411615301494
-6.6175,0.001238397922585138
-6.615,-0.00043539072640262
-6.6125,-0.005076157667654134
-6.61,-0.01527288722005715
-6.6075,-0.00420162751294356
-6.605,0.005382498044774881
-6.6025,0.01498094642053077
-6.6,0.01020357169848184
-6.5975,-0.001752931223062727
-6.595,-0.005053869972535641
-6.5925,-0.006306957920725271
-6.59,-0.008514501675011174
-6.5875,-0.008051663880184051
-6.585,0.0080055898589437
-6.5825,0.01661093253224963
-6.58,0.008739539380881036
-6.5775,-0.01005586490314985
-6.575,0.0003646639947126673
-6.5725,-0.006936406637559805
-6.57,-0.006661261558885323
-6.5675,-0.001841728056880731
-6.565,-0.005895279414512637
-6.5625,0.009940824780921741
-6.56,0.01771669469238549
-6.5575,0.004884115589317958
-6.555,-0.01193294667635187
-6.5525,-0.01713139659560606
-6.55,-0.01430042073647466
-6.5475,0.002860069679723838
-6.545,0.01809547658238742
-6.5425,0.01185435432705105
-6.54,0.005144566914198683
-6.5375,-0.003353975287272263
-6.535,-0.00275057984082308
-6.5325,-0.009981015874402052
-6.53,-0.00636689804029314
-6.5275,0.001577104298900342
-6.525,0.005735641562611631
-6.5225,0.0133876493848421
-6.52,0.00220438027138433
-6.5175,-0.008763542213979552
-6.515,-0.006870706236094663
-6.5125,-0.001430149200124887
-6.51,-0.005437424254636118
-6.5075,0.00172956571983164
-6.505,0.001316690926886815
-6.5025,0.009170602297532139
-6.5,0.00182792771725912
-6.4975,-0.001333480653320374
-6.495,0.004512775214166896
-6.4925,0.0004463107789985061
-6.49,-0.01171564268355795
-6.4875,-0.006941516063016972
-6.485,0.003739992191331627
-6.4825,0.01859854128106326
-6.48,0.00352960467628937
-6.4775,-0.01988324274494792
-6.475,0.001341704305257503
-6.4725,-0.002739451584855302
-6.47,-0.01153575058490174
-6.4675,0.004922178738687467
-6.465,0.01699166090738945
-6.4625,0.0101262972421018
-6.46,-0.004622458464833523
-6.4575,-0.01198639609566876
-6.455,0.002998541013254298
-6.4525,-0.008062521219209393
-6.45,-0.008600931574502698
-6.4475,0.01371637722853566
-6.445,0.005166731543683727
-6.4425,0.006678417541945571
-6.44,0.0003213605474596367
-6.4375,-0.004049591574222041
-6.435,-0.006051545756703838
-6.4325,-0.006482022220219979
-6.43,-0.004094127238058055
-6.4275,0.0004271279193043291
-6.425,0.01239957926021588
-6.4225,0.01154805946524348
-6.42,0.0003751197198416502
-6.4175,-0.005622120914864791
-6.415,0.0009536757319624877
-6.4125,-0.01423829777882298
-6.41,-0.02224762388657093
-6.4075,0.002908744515567116
-6.405,0.01866400135109069
-6.4025,0.01662700772071902
-6.4,0.007328325406525583
-6.3975,-0.009265294570609277
-6.395,-0.009051744606274099
-6.3925,-0.009698503180002736
-6.39,-0.01250589035580623
-6.3875,0.006327206056129487
-6.385,0.005881109149621399
-6.3825,0.01406786431204846
-6.38,0.002797203859303711
-6.3775,7.437500900988628e-05
-6.375,0.001264154167853814
-6.3725,-0.009465105806894641
-6.37,-0.002965869986910518
-6.3675,-0.003894081817503712
-6.365,0.005822983876072169
-6.3625,0.008914423143174833
-6.36,0.004337170091190039
-6.3575,-0.001008785227531188
-6.355,-0.008776117267239389
-6.3525,-0.01006437499035347
-6.35,-0.002310543269712243
-6.3475,0.001176390577799873
-6.345,0.01251146287971673
-6.3425,0.01778309220379376
-6.34,-0.01079520176613588
-6.3375,-0.01397907720875403
-6.335,0.001050970319955857
-6.3325,-0.009234481440276462
-6.33,-0.004803807989547415
-6.3275,0.004928388943501297
-6.325,0.01262710105619377
-6.3225,0.00600928068359714
-6.32,-0.0006698635468243107
-6.3175,0.003744655100207289
-6.315,-0.0004990855116290535
-6.3125,-0.0123509308162532
-6.31,-0.009351773384982163
-6.3075,0.005932210553194306
-6.305,0.01508950161109269
-6.3025,-0.0005094891057831583
-6.3,-0.005510184805884159
-6.2975,-0.0007723543071956948
-6.295,0.005361413691151536
-6.2925,-0.01169923144719813
-6.29,-0.01281727908502996
-6.2875,0.006700535369168964
-6.285,0.006336883644517243
-6.2825,0.01012026147575988
-6.28,0.009555613497674842
-6.2775,-0.002870037781753281
-6.275,-0.005891102069544033
-6.2725,-0.01097680710544308
-6.27,-0.008385332296865848
-6.2675,0.006385338712289896
-6.265,0.002435963767154365
-6.2625,0.0001682024272095099
-6.26,0.001473028870130502
-6.2575,0.007712019531512531
-6.255,-0.01023152006681886
-6.2525,-0.003711306711991124
-6.25,0.004164321211442436
-6.2475,0.003036827904204065
-6.245,0.007854343805310159
-6.2425,0.008519304410598541
-6.24,0.001161094577879878
-6.2375,-0.01025081376401386
-6.235,-0.01005159142624608
-6.2325,-0.008186227380941748
-6.23,-0.006493952739109387
-6.2275,0.005111921195579705
-6.225,0.01548995252938874
-6.2225,0.01502652758985092
-6.22,0.004750960518845101
-6.2175,-0.006908896066562146
-6.215,-0.01235029123183974
-6.2125,-0.0114674349073555
-6.21,-0.0003155355004835197
-6.2075,-0.007107181536975034
-6.205,0.004036633603566877
-6.2025,0.01468057126462664
-6.2,0.01462186481268368
-6.1975,-0.001740067521317692
-6.195,-0.01076737437627519
-6.1925,-0.01595085747892385
-6.19,-0.01144948786002464
-6.1875,0.02216591412029976
-6.185,0.01408255008426072
-6.1825,0.00163564946122101
-6.18,-0.007404946307174591
-6.1775,-0.001147364747929114
-6.175,-0.004992732492593724
-6.1725,-0.01070404049022011
-6.17,-0.004174753944789739
-6.1675,0.00175845175453805
-6.165,0.01155520495493231
-6.1625,0.01243463514732424
-6.16,0.001492449390715371
-6.1575,-0.01336995371940228
-6.155,-0.004597060289119864
-6.1525,0.0001225012345207009
-6.15,-0.004731453368760853
-6.1475,0.001877611309246649
-6.145,0.003347380041854779
-6.1425,0.002530069732656506
-6.14,0.009775315365801432
-6.1375,0.004120031086989162
-6.135,-0.005753337964833172
-6.1325,-0.0131769448181636
-6.13,-0.006252695346729139
-6.1275,0.01125582137219053
-6.125,-0.004315150244232481
-6.1225,0.009191169063165163
-6.12,0.01010390071020571
-6.1175,-0.006296278216182923
-6.115,-0.01568345700391378
-6.1125,-0.01268774566115922
-6.11,0.01453003790793202
-6.1075,0.01367543162119564
-6.105,-0.0004557614826147147
-6.1025,-0.01136747532365786
-6.1,0.002193166119056408
-6.0975,0.01010976333460945
-6.095,0.0002947848138010486
-6.0925,-0.01372416544039459
-6.09,-0.0002789247300154024
-6.0875,0.008564617102737922
-6.085,-0.00671726481112849
-6.0825,0.00994993584372336
-6.08,-0.005391494439609524
-6.0775,0.004358809153412782
-6.075,-0.004725480623059454
-6.0725,0.0004711398282661611
-6.07,-0.006486380995679391
-6.0675,-0.002019597212642282
-6.065,0.004510900532779089
-6.0625,0.007052550902188365
-6.06,0.003019141222548388
-6.0575,0.0004956233417023568
-6.055,0.001587331783586147
-6.0525,-0.009300827139642857
-6.05,-0.01142444853930196
-6.0475,-0.001291495594750005
-6.045,0.008969817859185389
-6.0425,0.006760889887241503
-6.04,0.01189002492174161
-6.0375,-0.01018151317149553
-6.035,-0.005056828222348545
-6.0325,-0.00775308771590432
-6.03,-0.003497637767957671
-6.0275,0.003539626106811009
-6.025,0.008755938799959626
-6.0225,0.004948868875877925
-6.02,0.00600006010178095
-6.0175,0.004007287955368912
-6.015,-0.008854082834013186
-6.0125,-0.01393634004926616
-6.01,-0.001682210367034648
-6.0075,0.0009330095158792617
-6.005,0.007819688666443182
-6.0025,-0.001444266088185117
-6,0.008790374124751412
-5.9975,0.00238976416312116
-5.995,-0.004929901494663358
-5.9925,-0.009697411804303649
-5.99,-0.005373073007494826
-5.9875,-0.001833311211112185
-5.985,0.004315429996613713
-5.9825,0.008932598202811655
-5.98,0.02186829584817582
-5.9775,-0.001497811894554506
-5.975,-0.01508088461614565
-5.9725,-0.005213387646334985
-5.97,-0.01689973965813121
-5.9675,-0.005689695374652647
-5.965,0.01515398847292352
-5.9625,0.01618388247318692
-5.96,0.008080547209321391
-5.9575,-0.004155516591161965
-5.955,-0.0002320722810536408
-5.9525,-0.02435083592773812
-5.95,-0.01437509476243043
-5.9475,0.005196146110258761
-5.945,0.007564237764950734
-5.9425,0.01603175317068324
-5.94,0.01471990327674145
-5.9375,-0.002098029939666758
-5.935,-0.0005053739522295738
-5.9325,-0.02104146805158168
-5.93,-0.004784590179831568
-5.9275,0.0003764337787244323
-5.925,0.01470837270337257
-5.9225,0.009488840798804668
-5.92,-0.0002094940485307338
-5.9175,-0.007613327862699771
-5.915,-0.01136095104262401
-5.9125,-0.0124262994563762
-5.91,0.0005770922933016686
-5.9075,0.006812621674070339
-5.905,0.006230637213424177
-5.9025,0.01423559732490819
-5.9,0.01134457079910346
-5.8975,-0.004681605302671082
-5.895,-0.01244825145483025
-5.8925,-0.01017578892261076
-5.89,-0.009697276696510247
-5.8875,0.0006285515626558644
-5.885,0.008077897708528315
-5.8825,0.02229143597230678
-5.88,0.001312462628419632
-5.8775,-0.006193077024623015
-5.875,-0.01478211265014006
-5.8725,-0.01612521849868122
-5.87,0.006735841271946444
-5.8675,0.003219948793441687
-5.865,0.01142268652853688
-5.8625,0.007569661850455451
-5.86,0.005455617481475401
-5.8575,-0.003758917197848793
-5.855,-0.007488914304508157
-5.8525,-0.007934077741966748
-5.85,-0.01348975155687666
-5.8475,-0.0100735671558634
-5.845,0.01838990791334804
-5.8425,0.03558106533647051
-5.84,0.001898972523982981
-5.8375,-0.01857572274013443
-5.835,-0.009640614101343257
-5.8325,-0.007150218607757542
-5.83,-0.001401318695574809
-5.8275,-0.001064203757066245
-5.825,0.00584306737758911
-5.8225,0.01011649938650535
-5.82,0.00971667198821977
-5.8175,-0.0005905023275661759
-5.815,-0.01442779171287558
-5.8125,-0.01340581836777298
-5.81,-0.00570342883932539
-5.8075,0.01184996598481236
-5.805,0.01519983204268891
-5.8025,0.004001248348793199
-5.8,-0.001294197560038789
-5.7975,-0.006806798657448097
-5.795,-0.003859678108464955
-5.7925,-0.01412861067239815
-5.79,-0.00352828642413682
-5.7875,0.003509470572158218
-5.785,0.01086415813128778
-5.7825,0.01119943701462873
-5.78,0.006937544434258292
-5.7775,0.002807633947453093
-5.775,-0.008171188233612651
-5.7725,-0.01289261617625571
-5.77,-0.009431545689416747
-5.7675,-0.0003417397800055237
-5.765,0.0006952191853552169
-5.7625,0.01140154231046689
-5.76,0.01264417147316315
-5.7575,-0.008890947101886171
-5.755,0.004414283046335576
-5.7525,-0.001380261091155011
-5.75,-0.01127848641190151
-5.7475,-0.005920503887463889
-5.745,0.006683326968115937
-5.7425,0.01465390445918877
-5.74,0.00733518991591186
-5.7375,-0.01072755558524343
-5.735,-0.004053363611840817
-5.7325,-0.01300430014027252
-5.73,-0.00453014847777036
-5.7275,0.008569437862177703
-5.725,0.003210090920348465
-5.7225,-0.004082844590039931
-5.72,0.0035863629916578
-5.7175,0.008995071698262653
-5.715,0.003032312549596042
-5.7125,-0.002265899567418578
-5.71,-0.00952638351932298
-5.7075,-0.008226260659789875
-5.705,0.01668400847790874
-5.7025,-0.0006659852805348098
-5.7,0.004442937013279189
-5.6975,0.002284402257484668
-5.695,-0.001453657924785553
-5.6925,-0.0148905933939739
-5.69,-0.0007958293048085392
-5.6875,-0.004292520026109428
-5.685,0.0004711177898003356
-5.6825,0.01038075021388197
-5.68,0.003250723826807458
-5.6775,0.008110297837611019
-5.675,-0.006195716617669772
-5.6725,-0.006418376235430148
-5.67,-0.008238932321134573
-5.6675,-0.005628281140205187
-5.665,0.0123249545894436
-5.6625,0.007116870267438906
-5.66,0.004727965462752979
-5.6575,0.01484388263738214
-5.655,-0.02160398609809656
-5.6525,-0.01255779016666879
-5.65,-0.0003854013654078511
-5.6475,-0.002556731906366769
-5.645,0.0126029953268618
-5.6425,0.008481593867318475
-5.64,0.001669090919521365
-5.6375,-0.005506431992277972
-5.635,-0.01425361360232146
-5.6325,-0.005223656378748008
-5.63,-0.0001737059298943275
-5.6275,-0.0005489867516908867
-5.625,0.02505752058334268
-5.6225,0.01104884840954398
-5.62,-0.01707345889146222
-5.6175,0.003610813372789752
-5.615,0.002716158389173757
-5.6125,-0.009274955886545375
-5.61,-0.0117763324231606
-5.6075,-0.00375831267639761
-5.605,0.01526711113193662
-5.6025,0.01139387325950812
-5.6,0.00140034163707315
-5.5975,-0.0003512689731067643
-5.595,-0.009303696202868077
-5.5925,-0.01503382131247302
-5.59,-0.002567054502001329
-5.5875,0.004717465599429725
-5.585,-0.007455250085461918
-5.5825,0.01691584255894201
-5.58,0.01630705864904367
-5.5775,-0.003022775990343783
-5.575,-0.01041202077404735
-5.5725,-0.006682521306804633
-5.57,-0.009208969987249706
-5.5675,0.002050943027936119
-5.565,0.01988834245620771
-5.5625,0.001055789227204907
-5.56,0.0007452622139895906
-5.5575,0.0003507102112973654
-5.555,-0.006297070049788853
-5.5525,-0.001800969935529961
-5.55,-0.02298972164549347
-5.5475,-0.01256885802567802
-5.545,0.02133041583944135
-5.5425,0.02004726020937101
-5.54,0.01179059957119608
-5.5375,-0.004071872281697716
-5.535,-0.0162749339537221
-5.5325,-0.003354694005523357
-5.53,-0.006243593948879174
-5.5275,-0.002641851468469738
-5.525,0.008096172625274291
-5.5225,0.01276662995612675
-5.52,0.005084901898091656
-5.5175,-0.01009362195026131
-5.515,-0.009084891313055152
-5.5125,-0.003074342998325485
-5.51,0.0001297787286059176
-5.5075,0.001147137558176524
-5.505,0.001038272085585207
-5.5025,0.01548155128713644
-5.5,0.01212362181270744
-5.4975,-0.01074172902057955
-5.495,-0.01629504053705545
-5.4925,0.0009760689288680582
-5.49,-0.004280243326268157
-5.4875,0.002018493652178887
-5.485,-0.003049500228905575
-5.4825,-0.001421493582185514
-5.48,0.02306707733105446
-5.4775,0.01371594417134788
-5.475,-0.01176898178504591
-5.4725,-0.01566788382760529
-5.47,-0.004469526536796456
-5.4675,-0.00749701818125225
-5.465,0.009306623816025657
-5.4625,0.01127337514076929
-5.46,0.00752643207318863
-5.4575,-0.01154684166741753
-5.455,-0.01126884339349458
-5.4525,-0.002522552170433983
-5.45,0.001377996137017135
-5.4475,1.36039173967911e-05
-5.445,0.01869140006058589
-5.4425,0.009112150244510836
-5.44,-0.008271619164713818
-5.4375,-0.004456638681873982
-5.435,-0.005697420902749735
-5.4325,-0.006012467736845765
-5.43,-0.005895902666928366
-5.4275,0.000698313616266462
-5.425,0.01750871544353527
-5.4225,0.007768867927925713
-5.42,-0.01127028369583037
-5.4175,-0.00258317789563458
-5.415,-0.002931550290728292
-5.4125,-0.001902832821406251
-5.41,0.003436043488254263
-5.4075,-0.0003790575715216954
-5.405,0.0006237072881972805
-5.4025,0.004967257441105993
-5.4,0.0002224047512890938
-5.3975,-0.003572501293288765
-5.395,-0.001315887414146427
-5.3925,-0.004302664833984061
-5.39,-0.003617962170328527
-5.3875,-0.01048256192826426
-5.385,0.004081537365155099
-5.3825,0.03711237396741127
-5.38,0.01449146306606271
-5.3775,-0.01146671305799107
-5.375,-0.02414714453029327
-5.3725,-0.01894390850555244
-5.37,0.0008207300714572114
-5.3675,0.009214861923911737
-5.365,0.008414278448308615
-5.3625,0.006987871181476637
-5.36,0.001657034625211265
-5.3575,0.001359410856364389
-5.355,-0.001397114051791441
-5.3525,-0.0209082549222075
-5.35,-0.01712035307710319
-5.3475,0.01421896888782028
-5.345,0.01273325471846687
-5.3425,0.007265371381397924
-5.34,0.008984741659323064
-5.3375,0.003922671188896809
-5.335,-0.005675886092374269
-5.3325,-0.008785267813172164
-5.33,-0.01702303801281797
-5.3275,-0.006741749479310799
-5.325,0.009950333755728262
-5.3225,0.0158813825047491
-5.32,0.005277031029746057
-5.3175,0.001807872422630099
-5.315,-0.004307399923818514
-5.3125,-0.008916547781415015
-5.31,-0.002717933846758052
-5.3075,-0.01447534817462363
-5.305,0.01064926306642376
-5.3025,0.00848603549343958
-5.3,0.002324522611600354
-5.2975,0.003615770484417937
-5.295,-0.00799802988216961
-5.2925,-0.002366569645913641
-5.29,-0.001691647322304197
-5.2875,-0.007185345911977076
-5.285,0.008674511511344659
-5.2825,0.008447089164869526
-5.28,0.01145179027255263
-5.2775,0.0016018529529957
-5.275,-0.01719206014009818
-5.2725,-0.00823704463453436
-5.27,-0.01054100953729271
-5.2675,0.009818994632291991
-5.265,0.01064467274100856
-5.2625,0.0003835934241625796
-5.26,0.01382490328819846
-5.2575,-0.008357960888871608
-5.255,-0.01248826219128351
-5.2525,-0.004735191497979937
-5.25,-0.004554495340809222
-5.2475,0.003663679848813517
-5.245,0.01135161767050503
-5.2425,0.003101879090085118
-5.24,0.01827851330512731
-5.2375,-0.01357088841250964
-5.235,-0.004002555902707672
-5.2325,-0.007755752516978841
-5.23,-0.01023087634303013
-5.2275,0.001445224212780777
-5.225,0.006899296592592586
-5.2225,0.006022977803792329
-5.22,0.001252318376473151
-5.2175,-0.002953396202978687
-5.215,0.00317737396761168
-5.2125,-0.0002727457405077423
-5.21,-0.005569139852726561
-5.2075,-0.0009068521134973011
-5.205,-0.005377910491052747
-5.2025,0.0101169795653321
-5.2,0.007078148591394578
-5.1975,-0.0009518520788014844
-5.195,-0.0181418357732242
-5.1925,0.01298307355494095
-5.19,0.001276365539588667
-5.1875,-0.007377190260544763
-5.185,0.005377867280981368
-5.1825,-0.003102804799511547
-5.18,0.00591419527039326
-5.1775,0.004483791017786396
-5.175,-0.006249775804635756
-5.1725,-0.009513376165726338
-5.17,-0.004759604440146634
-5.1675,-0.003442706735275205
-5.165,0.01109932391580641
-5.1625,0.007359243808376391
-5.16,0.005365020986468108
-5.1575,-0.001647759021791603
-5.155,-0.009721164502894673
-5.1525,-0.006489514757445626
-5.15,-0.002877985021168514
-5.1475,0.01008195140295074
-5.145,0.008338249256556228
-5.1425,0.000247858275743564
-5.14,-0.00041929937212389
-5.1375,0.01228066547554107
-5.135,-0.005293383282250012
-5.1325,-0.017589940870883
-5.13,-0.01481949419987916
-5.1275,-0.001729337429712634
-5.125,0.01819443459856354
-5.1225,0.01773032325590337
-5.12,1.932742635308478e-05
-5.1175,-0.01014475372630397
-5.115,-0.00744457398990752
-5.1125,-0.003637227092976824
-5.11,-0.007326987996221033
-5.1075,0.004936628617222058
-5.105,0.01560236352062585
-5.1025,0.006685204454912661
-5.1,0.003228517388029625
-5.0975,-0.01194313024058546
-5.095,-0.008083395591641493
-5.0925,-0.003640055036955632
-5.09,-0.00499027965013672
-5.0875,-0.001365095071861253
-5.085,0.004629270620328785
-5.0825,0.009072417934048685
-5.08,0.009136901473782225
-5.0775,0.005590214010175167
-5.075,-0.002027997558073005
-5.0725,-0.01440758922074734
-5.07,-0.008654738152044242
-5.0675,-0.00123080161869729
-5.065,0.008103803892822855
-5.0625,0.01442990885757438
-5.06,0.0002712104592157499
-5.0575,-0.01943930810935022
-5.055,0.002846381299260234
-5.0525,0.0006576273012111189
-5.05,-0.008834512894151514
-5.0475,-4.273164168054101e-05
-5.045,0.01353671996987871
-5.0425,0.01702965390817711
-5.04,0.0009113015730529881
-5.0375,-0.0111966700100221
-5.035,-0.01086008891207728
-5.0325,-0.006506766682017495
-5.03,-0.004641042845238174
-5.0275,0.004172607140457469
-5.025,-0.007277618119215279
-5.0225,0.01513850104578875
-5.02,0.02095145641502173
-5.0175,-0.004430850682798051
-5.015,-0.01116126489064888
-5.0125,-0.0005402551334944207
-5.01,-0.00529467188770721
-5.0075,-0.00481177948344264
-5.005,0.005734037519451754
-5.0025,0.01551576500589319
-5,0.00421132160149885
-4.9975,-0.00545431763238291
-4.995,-0.01292545591661433
-4.9925,-0.001862394733989213
-4.99,-0.02083817154524977
-4.9875,0.002238721935025361
-4.985,0.01543604653365548
-4.9825,0.01380700359320615
-4.98,0.009998453003605128
-4.9775,-0.003681438730742073
-4.975,-0.01105657943589453
-4.9725,-0.01132353084087708
-4.97,-0.00486396675745458
-4.9675,0.001315152466735699
-4.965,0.01349343000581318
-4.9625,0.008030475609205655
-4.96,-0.001179473036027882
-4.9575,0.002590459024240639
-4.955,0.0007090318452520659
-4.9525,-0.01933291091687485
-4.95,-0.01421071911429634
-4.9475,0.007931347333900348
-4.945,0.001582482233130271
-4.9425,0.02011253634616652
-4.94,0.02481408910858108
-4.9375,-0.01733217558508017
-4.935,-0.01823299281811497
-4.9325,-0.009286404599001966
-4.93,-0.0005512079236963891
-4.9275,0.004702218408740824
-4.925,0.004617030005819942
-4.9225,0.007038439545147505
-4.92,0.009349762486506874
-4.9175,-0.004163276022753811
-4.915,-0.01342106384233784
-4.9125,0.00149286247600178
-4.91,-0.004750997928970485
-4.9075,-0.007103338652631738
-4.905,0.007645178209160088
-4.9025,0.01382859073763188
-4.9,0.01048932764339136
-4.8975,-0.00535226742020281
-4.895,-0.004289740617877394
-4.8925,-0.006513185147160859
-4.89,-0.008963644353602251
-4.8875,-0.01265924529635955
-4.885,0.005937668689470647
-4.8825,0.01619713822845016
-4.88,0.01541801949637314
-4.8775,0.002757900038340531
-4.875,-0.008918468810175939
-4.8725,-0.02421275120736489
-4.87,-0.009223007706524457
-4.8675,0.00575468408280781
-4.865,0.01487920615687301
-4.8625,0.01848932413863926
-4.86,-0.01091860767156162
-4.8575,-0.01220440203379634
-4.855,0.01339745553921653
-4.8525,-0.002438529982102993
-4.85,-0.02164992479165116
-4.8475,0.003791872740815231
-4.845,0.01504452154843864
-4.8425,0.00441441726856764
-4.84,0.009779282114606243
-4.8375,0.003495655128324305
-4.835,-0.01059619556026276
-4.8325,-0.01540827540334796
-4.83,-0.006742128132056284
-4.8275,0.00515885450868699
-4.825,0.009237624742341353
-4.8225,0.004863263936933216
-4.82,0.003632354987219683
-4.8175,-0.00244933890144362
-4.815,0.0007328241887326359
-4.8125,-0.009124810545122552
-4.81,-0.03011156884750414
-4.8075,0.00867508852261193
-4.805,0.01821614151147807
-4.8025,0.01428264674555592
-4.8,0.005267327295613821
-4.7975,-0.006174100519220389
-4.795,-0.003323905511709781
-4.7925,-0.00745507673337619
-4.79,-0.003794311222685693
-4.7875,-0.003218719372858523
-4.785,-0.001769867319484463
-4.7825,0.005783561616387495
-4.78,0.02518065616757421
-4.7775,-0.00157807782095902
-4.775,-0.007754944070452178
-4.7725,-0.01529114153957052
-4.77,-0.003325909049496155
-4.7675,-0.008670820060118496
-4.765,0.003565878915851931
-4.7625,0.01688438635305587
-4.76,0.01260369178661572
-4.7575,-0.01288316042055273
-4.755,-0.009968288654209298
-4.7525,0.003401930227867241
-4.75,0.002277265415748535
-4.7475,-0.009619120435203327
-4.745,0.00505695597299055
-4.7425,0.005847683269292886
-4.74,0.008080464714252894
-4.7375,0.001416239389699174
-4.735,-0.00135824493643125
-4.7325,-0.001752645403316863
-4.73,-0.01183183173742144
-4.7275,-0.002065206712774934
-4.725,0.001996848350933628
-4.7225,0.004697482940846273
-4.72,0.008016081318981893
-4.7175,0.001738938251992093
-4.715,-0.00315897442292242
-4.7125,-0.01206369182535981
-4.71,-0.008194332230175344
-4.7075,-0.001578025884557032
-4.705,0.005496535051566487
-4.7025,0.00783462559550153
-4.7,0.01193367956830551
-4.6975,0.008639639131174309
-4.695,-0.01922313755714576
-4.6925,-0.01249789151353956
-4.69,0.01588892763263356
-4.6875,0.008514018354305699
-4.685,-0.007901385842873643
-4.6825,-0.00816107010846563
-4.68,-0.009313403452940933
-4.6775,0.01733036997607551
-4.675,0.004558659161770081
-4.6725,-0.009984581010122184
-4.67,-0.008806672283348955
-4.6675,-0.009227684631603192
-4.665,0.01549995315750153
-4.6625,0.02194225890484423
-4.66,-0.001490763150888233
-4.6575,-0.00234028920915097
-4.655,-0.008088826845987001
-4.6525,-0.008972556706464017
-4.65,-0.005763131973633142
-4.6475,-0.002442680697083959
-4.645,0.008123798637606986
-4.6425,0.01059985172988209
-4.64,0.007285703171159806
-4.6375,-0.007296427202538986
-4.635,-0.00930770526151904
-4.6325,-0.008469680299421106
-4.63,0.001496579324881406
-4.6275,0.006360649308742778
-4.625,0.003371583880328712
-4.6225,0.007437845400557237
-4.62,0.01439434269339671
-4.6175,-0.01017250559448232
-4.615,-0.01651527850448055
-4.6125,-0.001547748583478436
-4.61,-0.0002070065704249829
-4.6075,-0.003932119518422907
-4.605,-0.005764669667735062
-4.6025,0.006507893938297387
-4.6,0.02932159803585738
-4.5975,0.01059033159912555
-4.595,-0.01892711183688024
-4.5925,-0.01924832868056143
-4.59,-0.005459158966437894
-4.5875,-0.0008572688961305674
-4.585,0.005264346835792692
-4.5825,0.007375464116845696
-4.58,0.02008391013991185
-4.5775,0.00584463391465118
-4.575,-0.0118164331304646
-4.5725,-0.02159458739284034
-4.57,-0.01004145912973715
-4.5675,0.004110319409399027
-4.565,0.005095965322891192
-4.5625,0.01406658582884166
-4.56,0.007310581149339375
-4.5575,-0.002049247982783106
-4.555,-0.008621777956377205
-4.5525,-0.00744560755085759
-4.55,0.002233441936417409
-4.5475,0.0003347103884696409
-4.545,-0.006808214734890346
-4.5425,0.01686035771801121
-4.54,0.009659766519174317
-4.5375,-0.002892106095466369
-4.535,-0.005946625949078349
-4.5325,-0.01527466746317306
-4.53,-0.01029245191842002
-4.5275,0.008146343232279698
-4.525,0.01111126336136426
-4.5225,-0.01137755439353519
-4.52,0.01533946071946181
-4.5175,0.005496096250522696
-4.515,-0.002057818358082017
-4.5125,-0.00377216183744075
-4.51,-0.007123356880608388
-4.5075,-0.00971144604095879
-4.505,0.01022988534589324
-4.5025,0.01713484512542796
-4.5,-0.006392981081538209
-4.4975,-0.01173897540814658
-4.495,-0.004683750413211644
-4.4925,-0.0005028904353741603
-4.49,0.005339988534993591
-4.4875,-0.01606212061540048
-4.485,0.006467265535075596
-4.4825,0.02421004076587183
-4.48,0.01216395405947109
-4.4775,-0.00723389783659664
-4.475,-0.0108748356393813
-4.4725,-0.007841594087662001
-4.47,-0.008021048639789495
-4.4675,-0.004948452484675665
-4.465,0.01289327529882163
-4.4625,0.01593181471222048
-4.46,0.002217164433246311
-4.4575,-0.01597884636969173
-4.455,0.005460284590783559
-4.4525,-0.004410750358250764
-4.45,-0.003852156158188452
-4.4475,-0.004288031559435315
-4.445,-0.002758742872095419
-4.4425,0.00946054624656441
-4.44,0.01196550352025749
-4.4375,0.003874801443806945
-4.435,-0.008841039431167515
-4.4325,-0.00962701239395721
-4.43,-0.006129421184722976
-4.4275,0.003809432488676242
-4.425,0.003508273765201846
-4.4225,0.006290689443271053
-4.42,-0.001617807773478389
-4.4175,-0.003622180277467422
-4.415,0.001377112988641785
-4.4125,-0.001747120043858165
-4.41,-0.02124414444689497
-4.4075,0.01457614625596361
-4.405,0.01231816787053872
-4.4025,0.000375662555436433
-4.4,0.00900672623696013
-4.3975,-0.002265768037182676
-4.395,-0.005138428670570084
-4.3925,-0.01259503709104852
-4.39,-0.01654120736162383
-4.3875,0.005614618024402836
-4.385,0.01931298451894934
-4.3825,0.007831180989627439
-4.38,0.009451382830274585
-4.3775,-0.004331714592003593
-4.375,-0.02211947878960212
-4.3725,-0.0002726335239826589
-4.37,-0.003516051871546236
-4.3675,-0.01172982374714238
-4.365,0.01563024168545962
-4.3625,0.01439340638555938
-4.36,0.01473945518762905
-4.3575,-0.00153348062626043
-4.355,-0.01061179917539123
-4.3525,-0.01374660804791087
-4.35,-0.009423159966857995
-4.3475,-0.004302037734390965
-4.345,0.01184365738903205
-4.3425,0.01472675387323619
-4.34,0.005683762861844383
-4.3375,0.0004497850586098096
-4.335,-0.007849828270567565
-4.3325,-0.01180368546787979
-4.33,-0.01063844598291162
-4.3275,-0.003969027215118584
-4.325,0.006183415986249985
-4.3225,0.01353209164138429
-4.32,0.01920277578223548
-4.3175,-0.00979692083941797
-4.315,-0.009258248737833668
-4.3125,0.01154835184717018
-4.31,-0.01579610287707237
-4.3075,-0.001730687043378236
-4.305,-0.006998509883586042
-4.3025,0.006737241425236857
-4.3,0.01081120278222272
-4.2975,0.003694284545058797
-4.295,-0.002247163412808849
-4.2925,-0.005476508188520989
-4.29,-0.0001613789188472328
-4.2875,-0.01533811896091229
-4.285,0.004730781945675285
-4.2825,0.01382579835909236
-4.28,0.00720529233816525
-4.2775,-0.006321120782671363
-4.275,-0.006234939916230377
-4.2725,-0.008024185512504889
-4.27,-0.00761339537043741
-4.2675,0.004002486605085583
-4.265,0.01481711511020295
-4.2625,0.01263554789436643
-4.26,-0.001531865663220623
-4.2575,-0.00352967207256932
-4.255,-0.004943618879424087
-4.2525,-0.009863633290112243
-4.25,-0.007651649688959686
-4.2475,-0.006052600769725132
-4.245,0.009602707305493556
-4.2425,0.01532392090784615
-4.24,0.01762593081921985
-4.2375,-0.003375124856571623
-4.235,-0.01968957862094815
-4.2325,-0.0174384711299138
-4.23,-0.005625087332348695
-4.2275,0.006888742583322774
-4.225,0.01262266595012337
-4.2225,0.005351648012219717
-4.22,0.0157230649798609
-4.2175,0.01516639917698138
-4.215,-0.02071207971421929
-4.2125,-0.02458300241686154
-4.21,-0.00989374830646586
-4.2075,0.005245720850459237
-4.205,0.008243629149583803
-4.2025,0.01027646252750963
-4.2,0.01119373344987313
-4.1975,-0.001377670496874613
-4.195,0.001349177385913254
-4.1925,-0.008900929979535611
-4.19,-0.008841603058499507
-4.1875,-0.00324253262246152
-4.185,0.004142979992070632
-4.1825,0.009239751249757386
-4.18,0.009456761712876337
-4.1775,-0.01117546882287503
-4.175,-0.003056416837786244
-4.1725,-0.003409329201869147
-4.17,-0.01070127687796134
-4.1675,-0.006826383506399048
-4.165,0.01201615436479723
-4.1625,0.01573083417230251
-4.16,0.004446485831030685
-4.1575,0.001075009677320864
-4.155,-0.006847935170089178
-4.1525,-0.00681463175363472
-4.15,-0.01052155344566121
-4.1475,-0.001268969732201494
-4.145,0.000184354321547324
-4.1425,0.01122897094857428
-4.14,0.01477819194411471
-4.1375,0.005937154620302831
-4.135,-0.01208706506403659
-4.1325,-0.0155012797919913
-4.13,-0.0169650271259492
-4.1275,0.008310218508902893
-4.125,0.01136352416637317
-4.1225,0.01219642853864427
-4.12,0.009837495735778469
-4.1175,-0.003296332346635936
-4.115,-0.00213410913907483
-4.1125,-0.01154545005979491
-4.11,-0.02293238913244101
-4.1075,0.0119976958606879
-4.105,0.01044992975311716
-4.1025,0.01435879239487844
-4.1,0.001548553285080605
-4.0975,-0.01183201018638515
-4.095,-0.003165774518870528
-4.0925,-0.001167151467865697
-4.09,-0.01067731290047361
-4.0875,-0.003298314583100203
-4.085,0.008955159582533706
-4.0825,0.009542443617589862
-4.08,0.006011648927272785
-4.0775,0.006739890470905598
-4.075,-0.01053449146379817
-4.0725,-0.005799341887528023
-4.07,-0.01046191090549234
-4.0675,0.0005752658618899781
-4.065,-0.0002231985555849379
-4.0625,0.02086215132969157
-4.06,-0.005773783860899303
-4.0575,-0.001765455954796115
-4.055,-0.003992761263049263
-4.0525,-0.007428794148068443
-4.05,-0.001420145823182075
-4.0475,-0.0009890956297644285
-4.045,0.01017302375496042
-4.0425,0.007794483296334364
-4.04,0.003957701407924327
-4.0375,-0.0009932384508311923
-4.035,-0.008634970064510623
-4.0325,-0.009936482390326894
-4.03,0.002015854009020517
-4.0275,0.007339160206315795
-4.025,-0.004384694852837209
-4.0225,-0.0002010146172933997
-4.02,0.01190421666890228
-4.0175,0.01129040798082419
-4.015,-0.006081977635453176
-4.0125,-0.03076195306560852
-4.01,-0.009963849421884776
-4.0075,0.02212431726454936
-4.005,0.01354811937984472
-4.0025,0.005398517026234281
-4,-0.007932005223117907
-3.9975,-0.005025003870990738
-3.995,-0.004220051365841833
-3.9925,-0.0001772672699999776
-3.99,-0.007266181489623417
-3.9875,-0.0004122304462145186
-3.985,0.01266557602126551
-3.9825,-0.007059276471503313
-3.98,0.01463979992179814
-3.9775,0.007649891797086705
-3.975,-0.008299716270479129
-3.9725,-0.01037501147473571
-3.97,-0.009141516558065034
-3.9675,-0.00516036730647052
-3.965,0.01094053537155383
-3.9625,0.01416139212686571
-3.96,0.009704643414746753
-3.9575,-0.001950140555514024
-3.955,-0.01357922737964822
-3.9525,-0.01002613747606673
-3.95,-0.009179191984683525
-3.9475,0.005319990744409272
-3.945,0.01658120212982784
-3.9425,0.003227406923534108
-3.94,-0.006737106994889067
-3.9375,-0.01380690976671043
-3.935,0.008366329177202909
-3.9325,0.006110851978710426
-3.93,0.0008461560815707204
-3.9275,-0.00549205510192802
-3.925,-0.00971287928080727
-3.9225,-0.000947403301785576
-3.92,0.01722944419127082
-3.9175,0.005927706748928066
-3.915,-0.00228088656834682
-3.9125,-0.01263207882240778
-3.91,-0.004770040534982623
-3.9075,-0.002412978427618161
-3.905,0.007820771726264813
-3.9025,0.0145571225081897
-3.9,0.008991228788057902
-3.8975,-0.009133966513039713
-3.895,-0.0009764923600567442
-3.8925,0.002124009678249255
-3.89,-0.02106274127417437
-3.8875,-0.001428239929942927
-3.885,-0.02834858813465949
-3.8825,0.01840388925705451
-3.88,0.0331801846400244
-3.8775,-0.00249569397561457
-3.875,-0.002780854275275153
-3.8725,-0.01029565265548483
-3.87,-0.002400580917509116
-3.8675,-0.0009578391989082768
-3.865,-0.002229299841268873
-3.8625,0.006723211779528312
-3.86,0.0219668429645833
-3.8575,0.001457995382236875
-3.855,-0.008074103782562746
-3.8525,-0.01022477053294395
-3.85,-0.01120150622569273
-3.8475,-0.0177847946212372
-3.845,0.01035694449356965
-3.8425,0.01781931980877303
-3.84,0.01334790099936368
-3.8375,-0.006113855661205833
-3.835,-0.008087064706107549
-3.8325,-0.001333737791056333
-3.83,-0.0198261120464003
-3.8275,-0.00336262026979649
-3.825,0.01619699936165257
-3.8225,0.01426511684460426
-3.82,0.01017671537642614
-3.8175,0.004839660322300376
-3.815,-0.02009370318201984
-3.8125,-0.01630487709965558
-3.81,0.006210553672516845
-3.8075,0.004911023118919617
-3.805,0.00255997244243033
-3.8025,0.009282293551922463
-3.8,0.001518804069915988
-3.7975,-0.001662155641132338
-3.795,-0.006326231436933932
-3.7925,-0.009663244364156885
-3.79,-0.01338115241521129
-3.7875,0.01612241825078425
-3.785,0.01115500974410621
-3.7825,-0.001236397441227407
-3.78,-0.004884023267946715
-3.7775,-0.004192568815908336
-3.775,0.006180952062193643
-3.7725,0.0008456783584789584
-3.77,-0.02465377840800822
-3.7675,0.006244378348176032
-3.765,0.01410518250172242
-3.7625,0.009090600123070728
-3.76,-0.0003838955577883505
-3.7575,-0.00126570622060348
-3.755,-0.005318222129494478
-3.7525,-0.008845033881947059
-3.75,-0.002313569160515628
-3.7475,0.007146392774434743
-3.745,0.003256005395953272
-3.7425,0.00494052844858559
-3.74,0.007825507806187798
-3.7375,0.003604682675123474
-3.735,-0.01409501334720521
-3.7325,-0.01661690093999894
-3.73,-0.006715358620250441
-3.7275,0.001334100178687694
-3.725,0.01838129274754314
-3.7225,0.0211382169854402
-3.72,-0.001082833649001055
-3.7175,-0.01231984572993992
-3.715,-0.0070014493487641
-3.7125,-0.002494414506880426
-3.71,-0.006397242170930674
-3.7075,0.001179395812328303
-3.705,0.001117925069117962
-3.7025,0.007040159995511383
-3.7,0.006264884808246615
-3.6975,-0.007072300073449759
-3.695,0.004002480749844983
-3.6925,-0.008754029765754765
-3.69,-0.005334670616728045
-3.6875,-0.002111565769395061
-3.685,0.006166722309607052
-3.6825,0.01077076485354071
-3.68,0.003846332338817716
-3.6775,0.004288970001439036
-3.675,0.002761568916825034
-3.6725,-0.0137110626866951
-3.67,-0.02447960695962037
-3.6675,0.007007967732907237
-3.665,0.01476704432824038
-3.6625,0.0179658157357843
-3.66,0.00988955138235518
-3.6575,-0.01367611897139611
-3.655,-0.01619048574743603
-3.6525,-0.01495869807314174
-3.65,-0.002327065141197057
-3.6475,0.004918688658902355
-3.645,0.00966594056739173
-3.6425,0.007473573276030952
-3.64,0.005950606291763702
-3.6375,0.003119094322759617
-3.635,-0.009674995218173823
-3.6325,-0.01016137107654398
-3.63,0.01278267209015745
-3.6275,-0.007952031742227503
-3.625,-0.001125968005608024
-3.6225,0.003715538454516104
-3.62,0.008131233964451942
-3.6175,0.002174820036080125
-3.615,0.001466462695672227
-3.6125,-0.007848081816708718
-3.61,-0.007888063394426255
-3.6075,-0.006947344239927475
-3.605,-0.001794230476251719
-3.6025,0.01125633481424777
-3.6,0.01758995313334362
-3.5975,7.325111041474894e-05
-3.595,-0.0121735579718882
-3.5925,-0.007248889514272088
-3.59,-0.00277646591818915
-3.5875,-0.0002013806665557091
-3.585,0.02412639938275574
-3.5825,0.003675808157798338
-3.58,-0.01308228405459657
-3.5775,-0.005053628983846601
-3.575,-0.008909581840544273
-3.5725,-0.004589057298038799
-3.57,-0.001356744099414262
-3.5675,0.000250535161971938
-3.565,0.004941322895731842
-3.5625,0.02158668436942451
-3.56,0.003819975406077895
-3.5575,-0.01635265824496063
-3.555,0.000320713003999717
-3.5525,-0.01125821498503194
-3.55,-0.008594817191303197
-3.5475,0.014787373179574
-3.545,0.008300872105413481
-3.5425,-0.001355855165843546
-3.54,-0.001918835854578003
-3.5375,0.007148592022244499
-3.535,-0.005379234995277374
-3.5325,-0.01170732344440945
-3.53,-0.0007389559710511155
-3.5275,-0.003173555292680042
-3.525,0.02064503628970568
-3.5225,-0.007121463661289396
-3.52,-0.0114694250690707
-3.5175,0.01069824977349755
-3.515,0.009656680258594555
-3.5125,-0.002967413891667164
-3.51,-0.01239590013669011
-3.5075,-0.006444960716878405
-3.505,0.01081420361567295
-3.5025,0.005964747115346851
-3.5,-0.004360419097436687
-3.4975,0.006659312551357783
-3.495,-0.0007738029766848209
-3.4925,-0.009328621363252628
-3.49,-0.006410740217882467
-3.4875,0.005571172707068873
-3.485,0.003136597359748318
-3.4825,-0.001026279241776118
-3.48,0.004366184268394723
-3.4775,-0.001920730983930712
-3.475,-0.00964557936420673
-3.4725,0.008557776412048176
-3.47,-0.0057279300880904
-3.4675,0.0002527996793537013
-3.465,-0.008484518263863742
-3.4625,0.01956009521081696
-3.46,0.02552247542023778
-3.4575,-0.005847985403770802
-3.455,-0.02890606348374417
-3.4525,-0.01467139942446471
-3.45,0.004308762557838966
-3.4475,0.00469993872573002
-3.445,-0.001257977507098802
-3.4425,0.007879491306921388
-3.44,0.0184803515995632
-3.4375,0.004164775360745718
-3.435,-0.01711856749686843
-3.4325,-0.009022062575257504
-3.43,-0.0006734589807229968
-3.4275,-0.006133325117712522
-3.425,0.005074102067596897
-3.4225,0.01746052112977566
-3.42,0.008391267766042931
-3.4175,-0.004288112659742348
-3.415,-0.01109282868892755
-3.4125,-0.006902614274734911
-3.41,-0.007063105632449874
-3.4075,-0.002231854403685326
-3.405,0.004503024079513201
-3.4025,0.02412734949445744
-3.4,-0.008523601100285969
-3.3975,-0.003319973875717191
-3.395,-0.008794637114385117
-3.3925,-0.01569074152360785
-3.39,0.003023210890493697
-3.3875,0.001701255666724242
-3.385,0.002722656284458716
-3.3825,0.01901133192647578
-3.38,0.006384333421348709
-3.3775,0.01244070077192063
-3.375,-0.001031076085696789
-3.3725,-0.02000404627674405
-3.37,-0.01851630366937483
-3.3675,0.004095715072699013
-3.365,0.01428644647206177
-3.3625,0.001471982431740855
-3.36,0.0008785175683268854
-3.3575,0.0003376134960270855
-3.355,-0.002100968156153996
-3.3525,-0.01059908569901184
-3.35,0.001339579005817485
-3.3475,0.002669561741609303
-3.345,-5.607341154787421e-05
-3.3425,0.01181588370668766
-3.34,0.004779511060151375
-3.3375,0.006946840409601462
-3.335,-0.02056083468469806
-3.3325,-0.01106838419644354
-3.33,-0.007834629181197377
-3.3275,0.002682204239317484
-3.325,0.01577251958522824
-3.3225,0.01184997197038476
-3.32,0.003788320164437138
-3.3175,-0.01101049826998685
-3.315,-0.005264268639434489
-3.3125,-0.001293033980580032
-3.31,-0.003717195961471292
-3.3075,-0.0009471606116212162
-3.305,0.0003460737320235022
-3.3025,0.009147737740784295
-3.3,0.008509211941358449
-3.2975,0.002846882018129756
-3.295,-0.006531639943421203
-3.2925,-0.009233483891052186
-3.29,-0.006528198783312483
-3.2875,-0.005203450897794244
-3.285,-0.004856228316090725
-3.2825,0.03117893204141979
-3.28,0.003370879504313216
-3.2775,-0.005088447649063656
-3.275,0.0004582411173867038
-3.2725,-0.01063042105490574
-3.27,-0.01017520412551839
-3.2675,-0.006049800764513282
-3.265,0.001940795894605289
-3.2625,0.01235213626544172
-3.26,0.0088723397657176
-3.2575,-5.324650692982863e-06
-3.255,-0.0008360326940630582
-3.2525,-0.005039312346108837
-3.25,-0.006598865701906031
-3.2475,0.00183760260407215
-3.245,0.006058564273915304
-3.2425,0.002973100951769952
-3.24,0.0007835450342265445
-3.2375,-0.002378734331160723
-3.235,-0.00463030793634165
-3.2325,-0.009951886813950296
-3.23,-0.005712858866887107
-3.2275,5.759463499293012e-05
-3.225,0.01259075714821131
-3.2225,0.02461008560799029
-3.22,0.001994219989308634
-3.2175,-0.02120823139578938
-3.215,-0.003648580125741712
-3.2125,-0.01338197605283217
-3.21,-0.0007682845249666616
-3.2075,0.005862747110957452
-3.205,0.007909979849701487
-3.2025,0.01188265355402324
-3.2,0.002187111188841289
-3.1975,-0.00615172436087531
-3.195,0.008356099751582411
-3.1925,-0.0007033889315189508
-3.19,-0.0183335661915289
-3.1875,-0.01279772094599135
-3.185,0.004677551827615735
-3.1825,0.008675945137541942
-3.18,0.01087344362405828
-3.1775,-0.007525438913902295
-3.175,-8.73629412890813e-05
-3.1725,0.004552547090347049
-3.17,-0.01056373462384624
-3.1675,0.00553437197359134
-3.165,0.008739100810795736
-3.1625,-0.002111223491453238
-3.16,-0.01128281627011951
-3.1575,0.009204106179775349
-3.155,0.001806483166049127
-3.1525,-0.00561773477749388
-3.15,-0.01653078231341176
-3.1475,-0.003080622653713991
-3.145,0.01536442601947023
-3.1425,0.01551259398777994
-3.14,0.003124636460268488
-3.1375,-0.00435136317952132
-3.135,-0.00514405003561614
-3.1325,-0.005525836514081872
-3.13,-0.007747993329227685
-3.1275,-0.001210064613567073
-3.125,0.007821106654484886
-3.1225,0.00777716494021506
-3.12,0.006851779895340984
-3.1175,-0.004638204370452123
-3.115,-0.0109097356956003
-3.1125,0.008271742855011017
-3.11,0.0008030824019152596
-3.1075,-0.004126528292001959
-3.105,-0.006284656341341642
-3.1025,0.008208882748771528
-3.1,0.01621359639392122
-3.0975,-0.01722004529940581
-3.095,-0.01100757641940864
-3.0925,-0.006764461497648184
-3.09,-0.009087705391592196
-3.0875,0.01282475589872453
-3.085,0.01512053094793116
-3.0825,0.005727986611670306
-3.08,0.002486654608226219
-3.0775,-0.001691322445955563
-3.075,-0.008802781033664882
-3.0725,-0.01198843544760676
-3.07,-0.004115676943219329
-3.0675,0.004368715761556575
-3.065,0.009743625081156497
-3.0625,0.003477271190462108
-3.06,0.006409829761327006
-3.0575,0.009137023103812418
-3.055,-0.008407180088306982
-3.0525,-0.01522490781605427
-3.05,-0.01367822140678672
-3.0475,0.002811188573569275
-3.045,0.01784199125697967
-3.0425,0.01375809379572603
-3.04,0.0006446227365728035
-3.0375,-0.006104709144118046
-3.035,-0.01234975129280596
-3.0325,-0.01386142217876021
-3.03,0.003806513744904446
-3.0275,-0.002422880481441876
-3.025,-0.003553151539544207
-3.0225,0.02084845768614169
-3.02,0.003829026069440816
-3.0175,0.003039856573320208
-3.015,0.01434826637924906
-3.0125,-0.01300281853097031
-3.01,-0.02554766643010395
-3.0075,-0.0006143918480321157
-3.005,0.01006306864396179
-3.0025,0.01181878340959166
-3,0.003535631597756768
-2.9975,-0.009111905125100177
-2.995,-0.001263594310596665
-2.9925,0.001845973567444597
-2.99,-0.006344137419864387
-2.9875,-0.0002173325729901208
-2.985,0.008289111428421319
-2.9825,0.005761059369067274
-2.98,-0.001584326327211776
-2.9775,0.000838797737518237
-2.975,-0.005060367203250564
-2.9725,0.001328742871189201
-2.97,-0.01619836634929059
-2.9675,0.003423025666569449
-2.965,0.0001209789044679494
-2.9625,0.003225919496102216
-2.96,0.0115068358601564
-2.9575,0.003394140320277047
-2.955,-0.002762019794356369
-2.9525,-0.01011473941188523
-2.95,-0.006489160482660243
-2.9475,0.007885710745263445
-2.945,-0.003160831255801681
-2.9425,0.002897105557998493
-2.94,-0.0004678403135531299
-2.9375,0.01347825223298263
-2.935,0.00861049679451166
-2.9325,-0.01338616870055808
-2.93,-0.01761720050452562
-2.9275,-0.005768297619533016
-2.925,0.004686865064595526
-2.9225,0.01484732072605825
-2.92,0.0124358998689312
-2.9175,0.002522703881299225
-2.915,-0.01452547606774456
-2.9125,-0.01240921744039361
-2.91,-0.004731263022519908
-2.9075,-0.002450705765596258
-2.905,0.009898710236742776
-2.9025,0.01227592945639355
-2.9,0.00827428720639729
-2.8975,-0.0005437717412788785
-2.895,-0.005397202673026419
-2.8925,-0.01553944434891807
-2.89,-0.01072522705231971
-2.8875,-0.0006791582083224531
-2.885,0.01356692930126639
-2.8825,0.01089097565785318
-2.88,0.007872234578111568
-2.8775,-0.008966915421543051
-2.875,-0.004698865057257581
-2.8725,0.002811707392676816
-2.87,-0.008541412635439029
-2.8675,-0.000484420764829389
-2.865,0.002390421268135055
-2.8625,0.004541618396390401
-2.86,0.01199080789145875
-2.8575,-0.0008410008194868178
-2.855,-0.01329557523371448
-2.8525,-0.003749118843580216
-2.85,-0.007608580825759688
-2.8475,0.002582003578363988
-2.845,0.02623487016092715
-2.8425,-0.003769837370241395
-2.84,0.0004594106616905556
-2.8375,-0.00681598711091664
-2.835,-0.0108321792093615
-2.8325,-0.003687812748332052
-2.83,-0.006245478869647136
-2.8275,0.003846713062102406
-2.825,0.003582108121878178
-2.8225,0.01060074233116852
-2.82,0.01305330772333371
-2.8175,-0.006111842396227416
-2.815,-0.001607666753027642
-2.8125,-0.01648991413847233
-2.81,-0.01075808318033538
-2.8075,0.01023885811692859
-2.805,0.01536574975822085
-2.8025,-0.001684589042861948
-2.8,-0.002457294320381603
-2.7975,0.01100337451782712
-2.795,0.0005610089734840227
-2.7925,-0.007391735219985375
-2.79,-0.01566173388284877
-2.7875,-0.003796376478302195
-2.785,-0.0004851141313694181
-2.7825,0.01356669297680362
-2.78,0.008699637466702385
-2.7775,0.003679865869825204
-2.775,-0.003683336388339364
-2.7725,-0.01107860687670151
-2.77,-0.007090797912048192
-2.7675,-0.007245267471261966
-2.765,0.004038431716734483
-2.7625,0.008348993116762564
-2.76,0.02566326850294762
-2.7575,0.012906827782235
-2.755,-0.0155236551130178
-2.7525,-0.02319098637301887
-2.75,-0.01243725188469691
-2.7475,-0.008248492784971976
-2.745,0.007001167167767283
-2.7425,0.01998243141902001
-2.74,0.003747290485432779
-2.7375,0.005377904971398407
-2.735,-0.004684495489978704
-2.7325,-0.01046208774032075
-2.73,-0.00192295034876116
-2.7275,0.001674387604781331
-2.725,0.002219611222488006
-2.7225,-0.0005918936955614043
-2.72,0.007207822957978121
-2.7175,0.0091193325767512
-2.715,-0.006563422586061597
-2.7125,-0.007101397660120292
-2.71,-0.01088675646312261
-2.7075,-0.005770565850234301
-2.705,0.01945271739565714
-2.7025,0.01175798370073955
-2.7,-0.001778007858032398
-2.6975,-0.005595649784803449
-2.695,-0.002556525901302459
-2.6925,-0.01543013730313545
-2.69,-0.00518976156850989
-2.6875,0.002376858993925099
-2.685,0.008223712719527239
-2.6825,0.01334040644601384
-2.68,0.009836218242505707
-2.6775,-0.003678862747967178
-2.675,-0.0152529405689961
-2.6725,-0.01528075671983392
-2.67,0.00130964804195425
-2.6675,0.02121337175180607
-2.665,0.0004257031327905182
-2.6625,-0.01092263520129636
-2.66,0.0001923098466827715
-2.6575,0.01020149193264836
-2.655,0.003174653479521236
-2.6525,-0.008913141399804897
-2.65,-0.007335174103816365
-2.6475,-0.006071055356714583
-2.645,0.00947981629230675
-2.6425,0.008834907608502543
-2.64,0.003043257987409868
-2.6375,0.002050675966888846
-2.635,-0.005460325556177256
-2.6325,-0.01646377307660607
-2.63,-0.00306991547982289
-2.6275,0.006846448334251243
-2.625,0.007478198552197491
-2.6225,0.0005154957183549528
-2.62,0.01075188531338643
-2.6175,0.005712274734743506
-2.615,-0.004577679573190399
-2.6125,-0.01047283731596971
-2.61,-0.00622155849812455
-2.6075,-0.008754097902752184
-2.605,0.006579014319055913
-2.6025,0.01337365486560691
-2.6,0.00828936392994723
-2.5975,-0.007274767809714658
-2.595,-0.009621838176391563
-2.5925,0.003985536690527751
-2.59,-0.001540856673787685
-2.5875,-0.01979271802061434
-2.585,-0.005388530476099845
-2.5825,0.02065512362976627
-2.58,0.01701714609185322
-2.5775,0.004906009940747746
-2.575,-0.009552687593694102
-2.5725,-0.008515262858333405
-2.57,-0.01334977370969121
-2.5675,-0.005494998357141329
-2.565,0.00990136055193659
-2.5625,0.02817823055798637
-2.56,0.004128330818605622
-2.5575,0.003005220196399334
-2.555,-0.02405996977967253
-2.5525,-0.0173063950439543
-2.55,-0.00191733372809512
-2.5475,-0.002418183296572006
-2.545,0.006864962259792192
-2.5425,0.007278409587509085
-2.54,0.01307956570748182
-2.5375,0.007778962256484678
-2.535,-0.005531515379592624
-2.5325,-0.00993458415568468
-2.53,-0.005396143283146878
-2.5275,-0.006028872671780764
-2.525,0.002493940832192264
-2.5225,0.01499310430631945
-2.52,0.009051452643997792
-2.5175,0.003536089956773142
-2.515,-0.01669476548484881
-2.5125,-0.002033634335181969
-2.51,-0.00911101115015551
-2.5075,-0.005785631555268118
-2.505,0.008214428091780182
-2.5025,0.02030535104474293
-2.5,-0.004858414373040418
-2.4975,-0.0007168372302714574
-2.495,0.003070064858963702
-2.4925,-0.01387804153591125
-2.49,-0.01198126396917032
-2.4875,-0.0002907280844328176
-2.485,0.01222538968304965
-2.4825,0.007370249244868545
-2.48,0.005000041755751736
-2.4775,-0.001995533219331228
-2.475,-0.005674521370539674
-2.4725,-0.006811246338344509
-2.47,-0.006656631532046854
-2.4675,-0.001879082925453101
-2.465,-0.001679173217976783
-2.4625,0.01180182542281708
-2.46,0.02657163028508053
-2.4575,0.001980125264808444
-2.455,-0.01336963216187903
-2.4525,-0.01113861781645571
-2.45,-0.01029791358077424
-2.4475,-0.005996093427899449
-2.445,0.004158768832242223
-2.4425,0.008046056689513607
-2.44,0.01470537481184599
-2.4375,0.00267660534265233
-2.435,-0.004504697909475471
-2.4325,-0.01151857376951191
-2.43,-0.01148468354952685
-2.4275,-0.0006090368303868795
-2.425,0.02026549460610652
-2.4225,0.01080376773026067
-2.42,-0.01783361520272164
-2.4175,0.0008493906659534742
-2.415,-0.001760384492701009
-2.4125,0.006562899454940742
-2.41,-0.003857814340618349
-2.4075,-0.0143305514860316
-2.405,-0.007972167351696096
-2.4025,0.01639852524509515
-2.4,0.02024450101024557
-2.3975,0.0008619193731213322
-2.395,-0.001682673578669359
-2.3925,-0.004000180345033954
-2.39,-0.02022198719097652
-2.3875,-0.009226342820760035
-2.385,0.006547719058148634
-2.3825,0.0156279984066603
-2.38,0.008298777133594141
-2.3775,-0.003764472756571627
-2.375,-0.002062569949564113
-2.3725,0.001436648678172321
-2.37,-0.008590161436751922
-2.3675,-0.01495706683392177
-2.365,0.00577320148562472
-2.3625,0.01255514952748875
-2.36,0.009912707997722942
-2.3575,-0.001218561185658772
-2.355,-0.006579540526127253
-2.3525,-0.007923497258928193
-2.35,-0.007403598704618743
-2.3475,-0.008591882092636036
-2.345,-0.003506203862945247
-2.3425,0.03358122436714953
-2.34,0.02007081244176915
-2.3375,-0.009282270200328178
-2.335,-0.01756811310852649
-2.3325,-0.007089983745500431
-2.33,-0.0008284630770855532
-2.3275,-0.006923490657831122
-2.325,-0.01263067730246215
-2.3225,0.02229602380710309
-2.32,0.01034608044086989
-2.3175,0.004448804272212634
-2.315,-0.003507188634871395
-2.3125,-0.009042411959547162
-2.31,-0.009482638898206511
-2.3075,-0.003799746348111703
-2.305,0.001704878443343626
-2.3025,0.007126824973872204
-2.3,0.01678311232532266
-2.2975,0.009194793674925121
-2.295,-0.007557606279537405
-2.2925,-0.01231674478136658
-2.29,-0.01334600429620418
-2.2875,-0.002097849855687048
-2.285,0.004597230310237531
-2.2825,0.007160027611282226
-2.28,0.007344562689807778
-2.2775,0.006664278263315824
-2.275,-0.002544347830974785
-2.2725,-0.008873128274397082
-2.27,-0.007517549620560705
-2.2675,-0.006256338351333629
-2.265,-0.001266248467987582
-2.2625,0.02002952182253878
-2.26,0.01080036100221258
-2.2575,-0.007125999385574244
-2.255,-0.01457144503175073
-2.2525,-0.0007305868796949902
-2.25,0.002041910404752977
-2.2475,-0.004210641518378464
-2.245,0.001728834374006066
-2.2425,0.009412809921982129
-2.24,0.014677506246448
-2.2375,-0.002058121850256058
-2.235,-0.01108578601790069
-2.2325,-0.01189217269729501
-2.23,-0.00326391789044583
-2.2275,0.003013240290997422
-2.225,0.001802448797634177
-2.2225,0.009200687686370434
-2.22,0.008073675273604811
-2.2175,-0.001834263918683314
-2.215,-0.002294151675057649
-2.2125,-0.01218369575240825
-2.21,-0.004342879220257611
-2.2075,-0.004286141924540762
-2.205,-0.002593386953208437
-2.2025,0.01599511749365056
-2.2,0.01594480371191728
-2.1975,0.005448331227977587
-2.195,-0.01718967081397727
-2.1925,-0.01376981942791066
-2.19,-0.02001102412621777
-2.1875,0.002734837518398068
-2.185,0.01988094103164041
-2.1825,0.01783231845365764
-2.18,0.005932622679946644
-2.1775,0.001775658175055428
-2.175,0.001822999712212046
-2.1725,-0.01588461763348619
-2.17,-0.02408956379096685
-2.1675,-0.006784815888765079
-2.165,0.01013880492489633
-2.1625,0.02457916639024108
-2.16,0.0155409906189848
-2.1575,-0.002046605085997496
-2.155,-0.009236322009280727
-2.1525,-0.02078449034593785
-2.15,-0.008011295326427071
-2.1475,0.00150147580343265
-2.145,0.008338904785320929
-2.1425,0.01161437094066747
-2.14,0.006044064983382672
-2.1375,-0.002425925912632116
-2.135,-0.006428307235758163
-2.1325,-0.003125590189736643
-2.13,-0.009309801705882611
-2.1275,-0.003482633780410875
-2.125,0.004072676665255952
-2.1225,0.009253502356899562
-2.12,0.01161959484661969
-2.1175,0.003617690248627734
-2.115,-0.006841709276135509
-2.1125,-0.009782756138285314
-2.11,-0.002689833133403627
-2.1075,-0.007780816379062823
-2.105,0.008445825174680831
-2.1025,-7.576431863268445e-05
-2.1,0.009871897797093859
-2.0975,-0.003426034866405325
-2.095,0.004111440868777265
-2.0925,-0.005613854869482604
-2.09,-0.01304257548864874
-2.0875,-0.00191963704641557
-2.085,0.008916976068944947
-2.0825,0.006920450653517748
-2.08,-0.00070052995500818
-2.0775,0.009791321279970334
-2.075,0.003085554146815074
-2.0725,-0.01311328955203895
-2.07,-0.004886109910179485
-2.0675,-0.004488440130787068
-2.065,0.001649829412139799
-2.0625,0.009430922867074285
-2.06,0.006215182188834501
-2.0575,0.0005896549836954287
-2.055,-0.003642229369562409
-2.0525,-0.003630478442371052
-2.05,-0.008588073514193825
-2.0475,-0.0005074518081844949
-2.045,-0.001868607028178004
-2.0425,0.006913147094702853
-2.04,0.01139351464271774
-2.0375,0.01481682832562952
-2.035,-0.008966304711202256
-2.0325,-0.0346567961597728
-2.03,0.006463405861912006
-2.0275,-0.001491883337319521
-2.025,0.002818272349930758
-2.0225,0.01378655721555953
-2.02,0.007805798631822034
-2.0175,0.0006374244316714072
-2.015,-0.00412739738309519
-2.0125,-0.006230256404867596
-2.01,-0.00449814294218526
-2.0075,-0.002164137701264976
-2.005,0.001585446412073374
-2.0025,0.002216152446001486
-2,-0.000565507597069409
-1.9975,0.005107418912377567
-1.995,0.005003823262093409
-1.9925,-0.001237691203464721
-1.99,-0.007087715591329866
-1.9875,-0.01690196872581073
-1.985,0.01619731925511166
-1.9825,0.01239923252507591
-1.98,-0.002214733978355201
-1.9775,-0.006221148727850973
-1.975,-0.0008742425635405611
-1.9725,0.001249472449175169
-1.97,-0.009162742006494135
-1.9675,-0.009055206825798159
-1.965,-0.001230215486607704
-1.9625,0.008237846061376595
-1.96,0.01242965562534861
-1.9575,0.00684640899687839
-1.955,-0.001941230283809659
-1.9525,-0.004112345795661383
-1.95,-0.009609382106970089
-1.9475,0.0008167056907233942
-1.945,-0.0002797431681367401
-1.9425,0.001590454404844981
-1.94,0.01222491263245502
-1.9375,-0.008142299515788026
-1.935,0.001006999659717966
-1.9325,-0.006968661893982779
-1.93,-0.00265291594796226
-1.9275,0.006200996225676755
-1.925,-0.001775075468933104
-1.9225,0.009018048196464193
-1.92,0.002714687130048542
-1.9175,-0.002573018517538178
-1.915,0.003048541237469416
-1.9125,-0.006900305035129665
-1.91,-0.01177471843593656
-1.9075,-0.01305407737175985
-1.905,0.01075531017964076
-1.9025,0.01449156280630495
-1.9,0.01220410707055111
-1.8975,0.0002963194851377511
-1.895,-0.005915097023725107
-1.8925,-0.01205488218749421
-1.89,-0.01152018693699403
-1.8875,-0.00684304234241544
-1.885,0.005894116213277856
-1.8825,0.01847021028878317
-1.88,0.006943439762456228
-1.8775,0.002516035048122515
-1.875,0.006436962741467113
-1.8725,-0.01603419190965386
-1.87,-0.01513640133071329
-1.8675,-0.002546703325081354
-1.865,0.006897280235776338
-1.8625,0.01585745537028041
-1.86,-0.0001071452522982622
-1.8575,-0.009639704016041731
-1.855,0.005832353142883522
-1.8525,0.0002062938555193895
-1.85,-0.006002490048740437
-1.8475,-0.01636013662509619
-1.845,0.005714251494523863
-1.8425,0.01722012891992158
-1.84,0.005824806651431415
-1.8375,0.006130939473108358
-1.835,-0.00466703314180974
-1.8325,-0.01069663558114975
-1.83,-0.01278207507313221
-1.8275,-0.006359076732086983
-1.825,0.0003917306752444445
-1.8225,0.01524762360647169
-1.82,0.01424502050707347
-1.8175,-0.0001579431638712397
-1.815,-0.002770816388652191
-1.8125,-0.004686137045820807
-1.81,-0.01200026300731311
-1.8075,-0.007625476759391171
-1.805,0.00106358728062884
-1.8025,0.01417675540778322
-1.8,0.006632142015233917
-1.7975,-0.0005991757022351118
-1.795,0.001477245772010883
-1.7925,-0.004786816165409513
-1.79,-0.009258336865128518
-1.7875,-0.01138610636463823
-1.785,0.002983358376011022
-1.7825,0.023619578226005
-1.78,0.006389260954545443
-1.7775,0.0002770942782971636
-1.775,-0.01037424275387073
-1.7725,-0.009873294627348768
-1.77,-0.007976984550237353
-1.7675,0.004276061143896753
-1.765,0.006690503958902663
-1.7625,0.009135381957214195
-1.76,0.004256318697940155
-1.7575,-0.009664401683429538
-1.755,-0.004151156117953206
-1.7525,0.001434153730111149
-1.75,-0.01214918635353153
-1.7475,-0.003426677892040504
-1.745,0.00294545990863148
-1.7425,0.01455140231411973
-1.74,0.01061093967658013
-1.7375,0.0009007543820694057
-1.735,-0.006940608563186103
-1.7325,-0.008970353991469662
-1.73,-0.004017360638294541
-1.7275,-0.007176788005901919
-1.725,0.000952081661261288
-1.7225,0.01392206398382654
-1.72,0.01280848724768194
-1.7175,0.001055967521515596
-1.715,-0.001147485998999179
-1.7125,-0.007813151418762296
-1.71,-0.0197424186078163
-1.7075,-0.005376776843261965
-1.705,0.01001726847351354
-1.7025,0.01336306425986378
-1.7,0.01776546440957519
-1.6975,-0.006842820489971755
-1.695,-0.01662616254437899
-1.6925,-0.0219000923036345
-1.69,0.01466452547267782
-1.6875,0.00624083981074614
-1.685,0.007375047113055992
-1.6825,0.004872981163367427
-1.68,9.507639270483302e-06
-1.6775,-0.0079946652361661
-1.675,0.005217992257787692
-1.6725,-0.003047711425028005
-1.67,-0.01737134478020242
-1.6675,-0.004729786998240567
-1.665,0.01196333242999981
-1.6625,0.01285573364853597
-1.66,0.008132724443343807
-1.6575,-0.0008705064582842521
-1.655,-0.005658063530733491
-1.6525,-0.007170738658519276
-1.65,-0.009127484111815352
-1.6475,-0.01046809637466201
-1.645,0.01018455098036415
-1.6425,0.01096501818363525
-1.64,0.002690199911202731
-1.6375,0.003134206785385642
-1.635,0.00205822519171536
-1.6325,-0.005483524344746016
-1.63,-0.01436172748917163
-1.6275,-0.001080354964649138
-1.625,0.003768674067601212
-1.6225,0.006039692330586217
-1.62,0.006564485871776288
-1.6175,0.01480799597301725
-1.615,-0.01161782372277532
-1.6125,-0.02439512400031633
-1.61,-0.008495165453791132
-1.6075,0.006501691270514136
-1.605,0.01959374524997722
-1.6025,0.01205306170997694
-1.6,0.0005796190956014863
-1.5975,-0.009850519182630893
-1.595,0.007531107271747073
-1.5925,-0.0023747017168193
-1.59,-0.01538142945689089
-1.5875,-0.007330881455495117
-1.585,0.004594823903268377
-1.5825,0.01315497074228912
-1.58,0.00236528129651686
-1.5775,-0.008534283725167246
-1.575,-0.004581758911700989
-1.5725,0.002777905560074023
-1.57,-0.002233014620712721
-1.5675,-0.0009048408710914796
-1.565,0.006270548122424799
-1.5625,0.001960675042542385
-1.56,0.00188479347356442
-1.5575,-0.001002992042448835
-1.555,-0.001573894457443814
-1.5525,-0.001149551244157649
-1.55,-0.004812043867591403
-1.5475,-0.002027220695476127
-1.545,0.003945600668205748
-1.5425,0.006522122239608206
-1.54,0.009086783641723155
-1.5375,-0.004239109086850419
-1.535,-0.007025598255909711
-1.5325,-0.003084327172585131
-1.53,-0.01545110362349046
-1.5275,-0.005033595047815135
-1.525,0.01316325309171104
-1.5225,0.01196186502411044
-1.52,0.009016437491671503
-1.5175,0.00451349044863715
-1.515,-0.0008765535831472481
-1.5125,-0.01721595762311809
-1.51,-0.005307005862222708
-1.5075,-0.001391274592919421
-1.505,0.004710163735198791
-1.5025,-0.003601192938787526
-1.5,0.01629904839169183
-1.4975,0.005935117722502246
-1.495,-0.01046950359556581
-1.4925,-0.01610198327159509
-1.49,-0.005311958814029216
-1.4875,0.006738467028798663
-1.485,-0.008887731607445703
-1.4825,0.01701805290831955
-1.48,0.02751308744787231
-1.4775,-0.0009974369283430591
-1.475,-0.01649072377371897
-1.4725,-0.008835822430001578
-1.47,-0.01559218949220323
-1.4675,-0.001123012971345325
-1.465,0.01689721385415989
-1.4625,0.009925881586384246
-1.46,-0.002653495782715906
-1.4575,-0.005810367011205742
-1.455,0.003912168134468311
-1.4525,-0.005006953623529595
-1.45,-0.01453039328517341
-1.4475,0.002854636537455139
-1.445,0.007534841566334273
-1.4425,0.00615237124314329
-1.44,0.005415331403086385
-1.4375,0.003054832995612067
-1.435,-0.00530428836888774
-1.4325,-0.0123985107685285
-1.43,-0.003542029861780121
-1.4275,0.0007933791436027843
-1.425,0.004055115673910995
-1.4225,0.009938042077468668
-1.42,0.01227083874827581
-1.4175,-0.006628661136102828
-1.415,-0.01884557732876481
-1.4125,0.003579679222576532
-1.41,0.003277510976618397
-1.4075,-0.008735329541516144
-1.405,0.005556786831470145
-1.4025,0.01240363342734525
-1.4,0.007715561443287732
-1.3975,0.003139756613831917
-1.395,-0.0102438330071724
-1.3925,-0.008578129894236708
-1.39,-0.006799361445087132
-1.3875,-0.009930424885978869
-1.385,0.0141682996790384
-1.3825,0.01028884059992269
-1.38,-0.005654524731306535
-1.3775,-0.004507882529180463
-1.375,0.006140505263505741
-1.3725,0.009418385415368439
-1.37,-0.01230500237105685
-1.3675,-0.01261429527391776
-1.365,-0.001411902110438035
-1.3625,0.01563221515571318
-1.36,0.006703091732270533
-1.3575,-0.005270304963477612
-1.355,-0.002950387035566036
-1.3525,0.001101550771187204
-1.35,-0.008610155744605191
-1.3475,-0.004232048229186854
-1.345,0.007385774673284346
-1.3425,0.001994755814144033
-1.34,0.01005091904285949
-1.3375,0.00668474472177639
-1.335,-0.00555360467656566
-1.3325,-0.005337802919704589
-1.33,-0.009560629366003957
-1.3275,-0.009361014192908154
-1.325,-0.001385904317464839
-1.3225,0.01669873310631257
-1.32,0.003447080521461689
-1.3175,0.004062996383903204
-1.315,0.006934470932824308
-1.3125,-0.003322186327217699
-1.31,-0.01394941371136731
-1.3075,-0.007791369882787631
-1.305,0.001556898645305744
-1.3025,0.01895001957716692
-1.3,0.00671511346377735
-1.2975,-0.01699707569009972
-1.295,0.0008745384142624571
-1.2925,-0.002015521472427386
-1.29,-0.01069750076576611
-1.2875,-0.0009081238601815217
-1.285,0.006962514248985458
-1.2825,0.01537276543278603
-1.28,0.0100463101378296
-1.2775,-0.002031805181757284
-1.275,-0.01802297848199435
-1.2725,-0.007809222581839486
-1.27,-0.001354946163886895
-1.2675,0.001325618699776946
-1.265,-0.0004249800061905847
-1.2625,0.005536754177724852
-1.26,0.009614629948492078
-1.2575,0.002966307274343416
-1.255,-0.002534649354461921
-1.2525,0.0008744086265777291
-1.25,-0.01108932066262825
-1.2475,-0.01074658132792144
-1.245,0.002070202272119685
-1.2425,0.01616616931266277
-1.24,0.003919373055054244
-1.2375,-0.001693502750582735
-1.235,-0.0007766733668853979
-1.2325,-0.004420621802447023
-1.23,-0.006035345105792775
-1.2275,-0.006343071357320113
-1.225,0.0002843447215017494
-1.2225,0.008761741963443178
-1.22,0.01667160406261407
-1.2175,0.002165388276796803
-1.215,-0.01202138980160958
-1.2125,-0.009929237066279309
-1.21,-0.007480678571556254
-1.2075,0.000509762340979713
-1.205,0.009353470137964386
-1.2025,0.01290148348256638
-1.2,0.01117224592118991
-1.1975,-0.004399370141543413
-1.195,-0.009998281943769529
-1.1925,-0.02284505206630797
-1.19,-0.00757359087897419
-1.1875,0.01535960556077904
-1.185,0.006373535174197105
-1.1825,0.009394894162119301
-1.18,0.01098594748267272
-1.1775,-0.003406150886994557
-1.175,-0.008999766370801569
-1.1725,-0.007349677477519794
-1.17,-0.008182288301569455
-1.1675,-0.001011574852391935
-1.165,-0.002479160529868063
-1.1625,0.01288485481765424
-1.16,0.01722721251149836
-1.1575,0.003441284017906914
-1.155,-0.0216358366937007
-1.1525,-0.004534084943040098
-1.15,-0.003442132785010996
-1.1475,0.002518955782298057
-1.145,0.003522271881899569
-1.1425,0.006734045896384908
-1.14,0.009427696776892879
-1.1375,-0.006114768342870131
-1.135,-0.01316049251978774
-1.1325,-0.003990273155060379
-1.13,-0.003628102815696202
-1.1275,0.00641521900656377
-1.125,0.003004826041697151
-1.1225,0.002821004848298273
-1.12,0.008037362266735147
-1.1175,0.004510928842789557
-1.115,-0.0005526102799892821
-1.1125,-0.004151082939367733
-1.11,-0.01648807924088694
-1.1075,-0.007782113803528665
-1.105,0.01942331939030337
-1.1025,0.008147914933266765
-1.1,0.009713224165662324
-1.0975,6.244185189904258e-05
-1.095,-0.0138110407626415
-1.0925,-0.02154772414861456
-1.09,-0.002953104758659063
-1.0875,0.01077766291898061
-1.085,0.004766344230046449
-1.0825,0.0051540661757058
-1.08,0.005396952804678475
-1.0775,0.005496707865999957
-1.075,0.003383361606774014
-1.0725,-0.01565384422813468
-1.07,-0.01588637307606058
-1.0675,-0.005507000051358494
-1.065,0.006482710321585019
-1.0625,0.02283266275221715
-1.06,0.01086020135235132
-1.0575,0.004754642467652343
-1.055,-0.02252812146604573
-1.0525,-0.01219242731396681
-1.05,-0.006112190911750972
-1.0475,0.0004279476058406617
-1.045,0.01307303995932448
-1.0425,0.01005629704934166
-1.04,-0.005508682320117989
-1.0375,0.004212869624899322
-1.035,0.01856676315335792
-1.0325,-0.01154302000430826
-1.03,-0.01069248260836522
-1.0275,-0.01899190008531337
-1.025,-0.003709404131170524
-1.0225,0.01559197774797867
-1.02,0.02018959368731659
-1.0175,-0.001047432605006044
-1.015,-0.003464525446234001
-1.0125,-0.007170109760484274
-1.01,-0.01411093858921361
-1.0075,-0.004534581830313389
-1.005,0.006807703516970018
-1.0025,0.0100563257283066
-1,0.009338394339411282
-0.9975000000000001,0.001199345994301148
-0.995,-0.008361345935703283
-0.9925,-0.004030066499424514
-0.99,-0.003138901845259472
-0.9875,-0.00799533161051965
-0.985,0.006266833822198866
-0.9825,0.006447104103174988
-0.98,0.008242311479746951
-0.9775,0.001369023038930305
-0.975,-0.007836011930656413
-0.9725,-0.001464901841166111
-0.97,-0.005148420793974606
-0.9675,-0.006492111084032639
-0.965,0.004101055328981923
-0.9625,0.006030549072203286
-0.96,6.57697013312926e-05
-0.9575,0.008683995361640348
-0.955,0.001786124040255679
-0.9525,-0.009716427319311358
-0.95,-0.007629676185280833
-0.9475,-0.006080952608715135
-0.945,0.007442218410795788
-0.9425,0.009043575010031911
-0.9399999999999999,-0.000333677252560203
-0.9375,0.007303051182603023
-0.9350000000000001,0.002743740390295601
-0.9325,-0.01260613128643337
-0.93,-0.03193766089625423
-0.9275,0.01236674072204544
-0.925,0.02655822997971589
-0.9225,0.006032054282660307
-0.92,0.003213634060412481
-0.9175,-0.001107275535719989
-0.915,-0.006368028786722608
-0.9125,-0.00988761131858935
-0.91,-0.01145232113522661
-0.9075,-0.0032486134272109
-0.905,0.007133920336608045
-0.9025,0.01418809780766245
-0.9,0.006745825403726377
-0.8975,-0.002622208798972585
-0.895,-0.006847284655822373
-0.8925,-0.003455178260811836
-0.89,-0.007354447155942132
-0.8875,-0.001529245140870166
-0.885,0.005262564286358498
-0.8825,0.003344907548049604
-0.88,0.003525855007430614
-0.8774999999999999,0.006462106844282133
-0.875,-0.003588488335323105
-0.8725000000000001,-0.01404303095621977
-0.87,-0.005664431708321339
-0.8675,-0.0006594671112894938
-0.865,0.005519260394276367
-0.8625,0.01392916706630412
-0.86,0.01341922521038606
-0.8575,0.001629409100631354
-0.855,-0.005063287460943602
-0.8525,-0.01594901968181474
-0.85,-0.009096249426751546
-0.8475,-0.00113325228676268
-0.845,0.001963642639897197
-0.8425,0.008608392867563828
-0.84,0.01171439112904978
-0.8375,0.001795667513930217
-0.835,-0.01284399559183875
-0.8325,-0.008455122965350196
-0.83,-0.003690234515474043
-0.8275,-0.0006608121449637234
-0.825,0.01123922862339657
-0.8225,0.01081671708153407
-0.82,0.002198821076920905
-0.8175,0.004846798101609468
-0.8149999999999999,-0.008921939426010534
-0.8125,-0.01002728452649334
-0.8100000000000001,-0.004353400682097523
-0.8075,-0.0007619973492133731
-0.805,0.0007327155701994027
-0.8025,0.005197678027548659
-0.8,0.01103548138618405
-0.7975,0.004418924239936391
-0.795,-0.00376516011456898
-0.7925,-0.01352853783896994
-0.79,-0.0114997744224429
-0.7875,-0.00845901271196951
-0.785,0.006490194589742699
-0.7825,0.01957085516145718
-0.78,0.01203531295448155
-0.7775,0.002696949461276347
-0.775,-0.00359549667137216
-0.7725,-0.006415283947832847
-0.77,-0.01122919088985419
-0.7675,-0.00844855471799456
-0.765,0.004283425946830126
-0.7625,0.008981071640942955
-0.76,0.00491319287390774
-0.7575,0.00376494614090195
-0.755,-0.002340973741909742
-0.7524999999999999,-0.005588507280272166
-0.75,-0.004488570612151209
-0.7475000000000001,-0.004495463220151137
-0.745,0.007889996950623181
-0.7425,0.0004315121098480293
-0.74,0.002029702581828179
-0.7375,0.006022652622573147
-0.735,-0.01413626239034174
-0.7325,-0.00257674273002471
-0.73,0.004409145143075269
-0.7275,-0.001363405920097954
-0.725,0.003624155593471904
-0.7225,0.003871355301658205
-0.72,0.01094763301039414
-0.7175,0.0005253395255977015
-0.715,-0.009533218218809363
-0.7125,-0.00703668348394136
-0.71,-0.005582943428467481
-0.7075,-0.005044522405012665
-0.705,0.003484261878891777
-0.7025,0.004966501070996482
-0.7,0.009900343558443724
-0.6975,0.007678633064670631
-0.695,-0.002439931909097247
-0.6925,-0.009112802266284123
-0.6899999999999999,-0.009904755757762595
-0.6875,0.006457911612304611
-0.6850000000000001,-0.01400061154618193
-0.6825,0.003785365852415498
-0.68,0.01036218169007351
-0.6775,0.002128467900467043
-0.675,0.01556415040452914
-0.6725,0.005458796332472828
-0.67,-0.01067361771306362
-0.6675,-0.01613565011041004
-0.665,-0.007402096198225852
-0.6625,0.01115839095441306
-0.66,0.01086116325741052
-0.6575,0.002267671223062236
-0.655,-0.01636744498331503
-0.6525,-0.0204401335722061
-0.65,0.001069710414700539
-0.6475,0.02058051464821343
-0.645,0.01054118905920935
-0.6425,0.01796319496792736
-0.64,-0.007842207288201616
-0.6375,-0.009128567546600654
-0.635,-0.001739558876908115
-0.6325,-0.0007236500119726521
-0.63,-0.008608146908564051
-0.6274999999999999,-0.01212749011265572
-0.625,-5.878893374953001e-05
-0.6225000000000001,0.01036637203591312
-0.62,0.01829884168841692
-0.6175,0.005291119955709165
-0.615,-0.007490400231779598
-0.6125,-0.02371076187877656
-0.61,0.003532853651738007
-0.6075,0.004855091588391821
-0.605,-0.005105929729972591
-0.6025,0.006326323562058952
-0.6,0.009792925654266666
-0.5975,0.01988268846965421
-0.595,-0.01428880641783934
-0.5925,-0.01584631066072042
-0.59,-0.02506214765731555
-0.5875,0.01142336046735809
-0.585,0.01912409675298153
-0.5825,0.003590414391717563
-0.58,-0.00511605778944898
-0.5775,0.00886476782489512
-0.575,0.003683833783341517
-0.5725,-0.0249989790895929
-0.57,-0.01416503799380523
-0.5675,0.003483803228255946
-0.5649999999999999,0.0143855425839395
-0.5625,0.02090728796675457
-0.5600000000000001,0.01066353122205068
-0.5575,-0.005421158430880925
-0.555,-0.004412759545181296
-0.5525,-0.008732638857209403
-0.55,-0.01526802711635866
-0.5475,-0.002978218300048662
-0.545,-0.008350718885602421
-0.5425,0.01863681444420771
-0.54,0.03311313426611081
-0.5375,-0.004762985426759
-0.535,-0.009148995077330474
-0.5325,-0.02617599968131278
-0.53,-0.01312356805290946
-0.5275,0.004858050702308455
-0.525,0.01320760485755603
-0.5225,0.02571793720652749
-0.52,-0.007799073526605143
-0.5175,-0.009546380702377349
-0.515,-0.006400722865050696
-0.5125,-0.0007260984657123942
-0.51,0.001449002089797851
-0.5075,-0.00689757099986797
-0.505,0.007898945163054311
-0.5024999999999999,0.01612568932195631
-0.5,-0.00231457418981758
-0.4975,-0.001178129177579413
-0.495,-0.01522426427411764
-0.4925,0.003050607903396456
-0.49,-0.01118701073825255
-0.4875,-0.005184782103453781
-0.485,0.009472914250279388
-0.4825,0.01916514599975092
-0.48,0.01065856680172662
-0.4775,-0.0133508610355521
-0.475,-0.0161401680977997
-0.4725,0.006244662783200148
-0.47,0.002761844472927379
-0.4675,-0.001604096343873634
-0.465,-0.006685839407534168
-0.4625,-0.003642337039371615
-0.46,0.01793249105257167
-0.4575,0.001109554862301686
-0.455,0.003574337432090282
-0.4525,-0.00975853811208445
-0.45,-0.01677118584537159
-0.4475,0.004452292570901471
-0.445,-0.00297054716655209
-0.4425,0.01272671593590436
-0.44,0.01086261121954172
-0.4375,0.003872695404346988
-0.435,-0.01060182828063317
-0.4325,-0.009159964005070749
-0.43,-0.007228588147662153
-0.4275,0.008996747211491822
-0.425,0.0002595738817459005
-0.4225,0.003625114935483155
-0.42,0.02034273869730854
-0.4175,-0.007546261950711405
-0.415,-0.01176916287305405
-0.4125,-0.006454218495004042
-0.41,-3.560723909177799e-05
-0.4075,-0.004261466731938697
-0.405,-0.001879446262249456
-0.4025,0.01240713412138685
-0.4,-0.008940299916080424
-0.3975,0.008699633264130193
-0.395,0.0196879289652015
-0.3925,-0.00560226054955447
-0.39,-0.0160973729344713
-0.3875,-0.01330932856515312
-0.385,-0.000803062260477182
-0.3825,0.01431147861155077
-0.38,0.0158871128768636
-0.3775,0.001702284701120246
-0.375,-0.01007007695470354
-0.3725,-0.005808719789376002
-0.37,-0.01487842535916288
-0.3675,-0.007838405976678293
-0.365,0.01458082727992724
-0.3625,0.01210686973883551
-0.36,0.01080705854170697
-0.3575,-0.00660523488020748
-0.355,-0.007703393990742408
-0.3525,-0.005061084545271694
-0.35,-0.002203838272579194
-0.3475,-0.002517204491141282
-0.345,0.002614237650419803
-0.3425,0.01393596517400473
-0.34,0.01439397544241062
-0.3375,0.0004197123734419405
-0.335,-0.01290801928689666
-0.3325,-0.01656256946373483
-0.33,-0.01769196921658646
-0.3275,0.003725746110405553
-0.325,0.01791572628502979
-0.3225,0.0007641551946171116
-0.32,0.009633581828263535
-0.3175,0.0045750416056494
-0.315,-0.003150671397986381
-0.3125,-0.0002426273029730179
-0.31,-0.01406356557893214
-0.3075,-0.004672644923737132
-0.305,0.00453531135742791
-0.3025,-0.0005458212078933632
-0.3,0.006479360470939661
-0.2975,0.008417174061628606
-0.295,-0.002729735107077812
-0.2925,-0.005379343627286413
-0.29,-0.00416178210722322
-0.2875,-0.008509953327334296
-0.285,0.01250190597189122
-0.2825,-0.008767213160168633
-0.28,0.006704796382420913
-0.2775,0.004990878991383646
-0.275,0.004596947734371063
-0.2725,0.002670417557183984
-0.27,-0.003267490140396843
-0.2675,-0.01247649452667914
-0.265,-0.006420920420217515
-0.2625,0.0002315637047592825
-0.26,0.0108643632545931
-0.2575,0.008039397982549736
-0.255,0.001831728665300629
-0.2525,-0.005205697026798531
-0.25,-0.009771422493021721
-0.2475,-0.001098051063294474
-0.245,-0.004157413709564124
-0.2425,0.004952105879428568
-0.24,0.02519260097778727
-0.2375,-0.00979540032687524
-0.235,-0.009126989560051531
-0.2325,-0.005339874837350016
-0.23,-0.00624502047087193
-0.2275,0.006524266630944436
-0.225,-0.002399359056993718
-0.2225,0.008321711183373411
-0.22,0.01077200492077651
-0.2175,0.007382039907483396
-0.215,-0.00726298445346143
-0.2125,-0.01356115542740691
-0.21,0.006646887053171044
-0.2075,-0.008350775855362256
-0.205,-0.01859455209168921
-0.2025,0.008643254372162327
-0.2,0.02072642447130987
-0.1975,0.00602780548386705
-0.195,-0.02461651290260362
-0.1925,-0.008206467244809029
-0.19,0.0196062789929505
-0.1875,0.02122046618793726
-0.185,-0.01629865526897639
-0.1825,-0.009681404142575387
-0.18,0.006937339845459582
-0.1775,-0.007243750741590874
-0.175,0.001490249807339096
-0.1725,-0.0004332634735468033
-0.17,-0.01153740477265786
-0.1675,-0.0001009782615739706
-0.165,0.01438276848950161
-0.1625,0.01146742957208224
-0.16,0.01664951023772835
-0.1575,-0.005136639920593467
-0.155,-0.01251914132972242
-0.1525,-0.005838078284989225
-0.15,-0.01408975002260132
-0.1475,-0.01346435164326946
-0.145,0.002634440989183264
-0.1425,0.01335119406851809
-0.14,0.02446808362727838
-0.1375,0.003733294287861485
-0.135,-0.01739484840623413
-0.1325,-0.01339158373698167
-0.13,-0.00257455537959927
-0.1275,-0.006469188937584061
-0.125,0.001138277374454717
-0.1225,0.01598817865294933
-0.12,0.03383227981088065
-0.1175,0.01380938227875906
-0.115,-0.02377502441246385
-0.1125,-0.03552417149946302
-0.11,-0.01068246378363437
-0.1075,0.00814916912821621
-0.105,0.01549679964332739
-0.1025,0.01189413310990935
-0.1,-0.01521604387656772
-0.0975,0.0008273714293616296
-0.095,-0.000527234180107061
-0.0925,0.003479996418162365
-0.09,-0.002922585255559382
-0.08749999999999999,0.006716731506840858
-0.08500000000000001,0.02006539441967227
-0.0825,-0.01309115154706959
-0.08,-0.02115735487318175
-0.0775,0.001427843898569862
-0.075,-0.0001071003313713718
-0.0725,-0.004829791173615637
-0.07000000000000001,-0.0002650026303287
-0.0675,0.005612951561940701
-0.065,0.01813887983262653
-0.0625,0.01097764800973828
-0.06,-0.00632863759528653
-0.0575,-0.01600521481895693
-0.055,0.001904722784602882
-0.0525,-0.00562774267060702
-0.05,0.0514729243613937
-0.0475,-0.07505455466811736
-0.045,-0.06452897995022622
-0.0425,0.06837494629121439
-0.04,0.09660634768108449
-0.0375,-0.001882633465555202
-0.035,0.170160586492308
-0.0325,-0.07285125861150654
-0.03,-0.3975885757927489
-0.0275,-0.1740723272805639
-0.025,0.1427801511276487
-0.0225,0.4626956474975471
-0.02,0.4694447491385331
-0.0175,-0.4197376582557681
-0.015,-0.2077317305633566
-0.0125,-0.5322600222717637
-0.01,0.7263308914300652
-0.0075,0.6112921242920574
-0.005,-0.5099728625733913
-0.0025,0.195772618430673
0,-0.5725580852284499
0.0025,-0.4625993994983341
0.005,-0.6833356102065057
0.0075,-0.2710324875023148
0.01,1.318279393721314
0.0125,0.3975989239690279
0.015,0.5520992626321199
0.0175,0.4943129031703192
0.02,-1.472298482308483
0.0225,-1.29556877192896
0.025,0.2921069738233943
0.0275,0.8773720752056192
0.03,0.9956295869767834
0.0325,1.103414533281583
0.035,-0.7524275044264187
0.0375,-1.934153210135901
0.04,-0.01405182708086967
0.0425,0.8675037236785816
0.045,-0.1917347324760238
0.0475,0.07230352869160223
0.05,1.220814218023743
0.0525,-0.5572422398601479
0.055,-1.164092403308723
0.0575,-0.5545285138709438
0.06,0.5137786815248027
0.0625,1.281651022988616
0.065,0.5841621651498249
0.0675,-0.3145090454146564
0.07000000000000001,-1.38221854916656
0.0725,0.6474129351220028
0.075,-0.2281249029932375
0.0775,-0.1501932417803335
0.08,0.2406445873550298
0.0825,-0.6033973789641542
0.08500000000000001,0.3481941899339789
0.08749999999999999,-0.008574717750708101
0.09,0.9263093561207587
0.0925,0.04262893835908384
0.095,-1.017083613066414
0.0975,0.09434460714608101
0.1,0.3025172122877259
0.1025,-0.2140477245347182
0.105,0.1226416038812617
0.1075,-0.1341146829973013
0.11,0.7045128791978792
0.1125,0.1262830843598328
0.115,-0.660143902637475
0.1175,-1.183333903296746
0.12,1.039445025533882
0.1225,-0.1693482982017155
0.125,-0.04896146688394489
0.1275,1.045861488426452
0.13,-0.4010782989030318
0.1325,-0.8118181036633294
0.135,0.767496905395846
0.1375,-0.003088500592078673
0.14,-0.6011000458372738
0.1425,0.7994775850619933
0.145,0.08653629616731659
0.1475,-1.126915598235927
0.15,0.06121559347032639
0.1525,0.06122719367286281
0.155,0.7518021857996259
0.1575,1.360349985066498
0.16,-1.868506470780067
0.1625,-1.045556077098806
0.165,0.3196610887778999
0.1675,0.6073693766415158
0.17,0.6659644418110438
0.1725,0.7507652438000043
0.175,0.4922194147598366
0.1775,-1.755264072188906
0.18,-0.5494708639514009
0.1825,0.2031337029365556
0.185,0.3470296041258563
0.1875,0.3934367576238656
0.19,-0.6718660365003224
0.1925,-0.111771714657893
0.195,0.4545525380130525
0.1975,0.2999516271126357
0.2,0.08875091294150354
0.2025,0.4706446788073956
0.205,0.09092644935935128
0.2075,-1.191786011320413
0.21,0.5514646431505719
0.2125,0.79810755014239
0.215,-0.9815289362924882
0.2175,-1.438096552464283
0.22,-0.01011222306058349
0.2225,0.9014977288912964
0.225,0.5960124339621367
0.2275,0.4442999946771209
0.23,0.01395514057310053
0.2325,1.047354351452518
0.235,-1.130871980420839
0.2375,-1.445084521489987
0.24,0.1053792280622281
