Time (s),Math 1 (V)
-10,0.1138114603569688
-9.9975,-0.004382552473433879
-9.994999999999999,-0.04632193159613563
-9.9925,-0.04433831913123168
-9.99,-0.01572975418346636
-9.987500000000001,0.002075719267693177
-9.984999999999999,-0.007684779875419577
-9.9825,-0.007937186371680562
-9.98,0.001457644285842669
-9.977499999999999,0.006146443025987009
-9.975,0.001056172583205149
-9.9725,0.001073388742246637
-9.970000000000001,0.004912811130238125
-9.967499999999999,0.004274046505755807
-9.965,-0.003987296090286174
-9.9625,-0.0009310729273207689
-9.960000000000001,-0.003801593324139215
-9.9575,-0.007526686962629817
-9.955,-0.00582903074681184
-9.952500000000001,0.001266100809108378
-9.949999999999999,0.007389569585971893
-9.9475,0.008671353439343651
-9.945,0.005712240563376468
-9.942500000000001,0.002495100904396743
-9.94,0.0004483235045312988
-9.9375,-0.01529405501112248
-9.935,-0.01031594646846453
-9.932499999999999,-0.002501515242575214
-9.93,0.003206631657789822
-9.9275,0.01448924985081115
-9.925000000000001,0.006212416475848234
-9.922499999999999,0.003153806496555357
-9.92,-0.001223802234921726
-9.9175,-0.01283725076100854
-9.914999999999999,-0.009568707984895555
-9.9125,0.003763355275883742
-9.91,0.006737694709089377
-9.907500000000001,0.01360364382582277
-9.904999999999999,-5.242995554356887e-05
-9.9025,-0.0003311113314255966
-9.9,0.001831735918135584
-9.897500000000001,-0.0109212565107339
-9.895,-0.013033672046467
-9.8925,-0.01077427903683751
-9.890000000000001,0.006945073796320991
-9.887499999999999,0.01651860678521372
-9.885,0.00900599918601549
-9.8825,-0.001268132847335304
-9.880000000000001,-0.008450474889715884
-9.8775,-0.009670907205903729
-9.875,-0.002048125744135191
-9.8725,0.001292644265433624
-9.869999999999999,0.004027859305708263
-9.8675,0.01187235684313228
-9.865,0.003471443538047029
-9.862500000000001,-0.0006845439260298502
-9.859999999999999,-0.003928976072164667
-9.8575,-0.005602526879645353
-9.855,-0.001846020283788417
-9.852499999999999,-0.001999369677944679
-9.85,-0.003396117738560651
-9.8475,0.01022317018907958
-9.845000000000001,0.008644102510757779
-9.842499999999999,-0.005890155509487923
-9.84,-0.008434659374254205
-9.8375,-0.001736019904230491
-9.835000000000001,-0.007330918230625683
-9.8325,-0.002080114642872603
-9.83,0.006861790587360435
-9.827500000000001,0.01141559780148265
-9.824999999999999,0.0148547673631527
-9.8225,-0.002558594426532038
-9.82,-0.009490289103455537
-9.817500000000001,-0.01022109958844752
-9.815,-0.0107259834523998
-9.8125,0.006053083157324135
-9.81,0.007155795324313829
-9.807499999999999,0.004728854145694834
-9.805,-0.004306160733195313
-9.8025,0.009248866174288058
-9.800000000000001,0.001649565471265182
-9.797499999999999,-0.01003346624374694
-9.795,-0.007883063826774157
-9.7925,-0.001961301080009312
-9.789999999999999,0.007157857620738253
-9.7875,0.005275825886533505
-9.785,0.002588143807390106
-9.782500000000001,-0.007824219339622442
-9.779999999999999,0.00239271077744308
-9.7775,-0.00364179362522893
-9.775,-0.004231086216590297
-9.772500000000001,-0.002775175132305698
-9.77,0.0009203358888121176
-9.7675,0.01029849546800432
-9.765000000000001,0.009402736012322249
-9.762499999999999,-0.0009471493646203954
-9.76,-0.001900792298806907
-9.7575,-0.007855669780589998
-9.755000000000001,-0.006772799063888001
-9.7525,0.004738836492582965
-9.75,0.008851851603074914
-9.7475,0.00463955953860127
-9.744999999999999,-0.0007028325424022138
-9.7425,-0.006462024768545181
-9.74,-0.01223747993455701
-9.737500000000001,-0.0008778623789981975
-9.734999999999999,-0.001001364656645968
-9.7325,0.003601393187443462
-9.73,0.01223495037160041
-9.727499999999999,0.0103347574378303
-9.725,-0.007093218175539216
-9.7225,-0.003753167305780044
-9.720000000000001,-0.005426982058598305
-9.717499999999999,-0.001739117961432223
-9.715,-0.004083530165534403
-9.7125,-0.003270283174495279
-9.710000000000001,0.004657226246371912
-9.7075,0.001228101358622181
-9.705,0.00385832436274874
-9.702500000000001,0.007481164021667524
-9.699999999999999,-0.004864969156363605
-9.6975,-0.01133332629484279
-9.695,-0.002684204046545505
-9.692500000000001,-0.003005784459572125
-9.69,0.004440155986628723
-9.6875,0.01156744943339762
-9.685,0.009425843918307608
-9.682499999999999,0.000778086346268788
-9.68,-0.002408361130374115
-9.6775,-0.002529986764534994
-9.675000000000001,-0.01646754551650527
-9.672499999999999,-0.006176685790815116
-9.67,0.01242435076820248
-9.6675,0.009519817457000932
-9.664999999999999,0.002707485693277143
-9.6625,0.001505803529235394
-9.66,-0.007988546142188004
-9.657500000000001,-0.005907174018370171
-9.654999999999999,-0.00290648836065159
-9.6525,0.003481662547097291
-9.65,-1.495663959855792e-06
-9.647500000000001,0.0009644697154554165
-9.645,0.003036243346043358
-9.6425,0.006793975820593473
-9.640000000000001,0.001140472669945276
-9.637499999999999,-0.01820088284856615
-9.635,-0.004781510331101178
-9.6325,0.005811777823596132
-9.630000000000001,0.007073233456785761
-9.6275,0.008984317228399241
-9.625,0.003986317006454683
-9.6225,-0.005615738763147109
-9.619999999999999,-0.008749775639869908
-9.6175,-0.01063032271068645
-9.615,0.001399963606690876
-9.612500000000001,0.004863339249834467
-9.609999999999999,0.004118545681462793
-9.6075,0.01076762511667784
-9.605,0.00239966368590395
-9.602499999999999,-0.001326783752400855
-9.6,-0.004177225636614068
-9.5975,-0.009875366918106756
-9.595000000000001,-0.007918176673794351
-9.592499999999999,0.004332196505112369
-9.59,0.008850260282852232
-9.5875,0.009026473936650421
-9.585000000000001,0.005560154480129777
-9.5825,-0.01052526486904941
-9.58,-0.01177669971029515
-9.577500000000001,-0.003341889297194403
-9.574999999999999,0.005027671171386057
-9.5725,-0.002651639155752375
-9.57,0.002203422308458992
-9.567500000000001,0.009340588263398246
-9.565,0.003819048918958178
-9.5625,0.0004871044299041666
-9.56,-0.00294020386893726
-9.557499999999999,-0.01356658905165629
-9.555,-0.003304898771717031
-9.5525,-0.002846560139586939
-9.550000000000001,0.0175557764968223
-9.547499999999999,0.01962703221639524
-9.545,-0.00435885425251343
-9.5425,-0.01915764736564457
-9.539999999999999,-0.005976881617632959
-9.5375,-0.001375609597683458
-9.535,-0.007810379387142661
-9.532500000000001,0.003727010344802627
-9.529999999999999,0.0124966209168456
-9.5275,0.008413156384698481
-9.525,-0.0004864084445305489
-9.522500000000001,-0.003262975740970221
-9.52,0.00133864116377843
-9.5175,-0.001903126473684358
-9.515000000000001,-0.002240498567923231
-9.512499999999999,-0.007857288886234784
-9.51,0.003971079968335908
-9.5075,0.002110198347753457
-9.505000000000001,0.00491868880566599
-9.5025,-0.0003188832171919676
-9.5,-0.008319510985578293
-9.4975,-0.003484547726361577
-9.494999999999999,-0.0005120927737082929
-9.4925,0.007058012281581414
-9.49,0.01107792343256187
-9.487500000000001,0.001712393543671682
-9.484999999999999,0.002174687018181494
-9.4825,-0.007026219357841313
-9.48,-0.01372858088141731
-9.477499999999999,-0.008474923040478114
-9.475,0.005091695651163032
-9.4725,0.01187833909038106
-9.470000000000001,0.0009960375163681895
-9.467499999999999,0.005485362906025229
-9.465,0.002713203215380073
-9.4625,-0.007776157872203686
-9.460000000000001,-0.01248870106912674
-9.4575,-0.007055973638196214
-9.455,0.001763332659772581
-9.452500000000001,-0.0002383908589697164
-9.449999999999999,0.01619893757608146
-9.4475,0.00897266636043411
-9.445,-0.001193002933630702
-9.442500000000001,-0.001989228715945849
-9.44,-0.005730663221277594
-9.4375,-0.006866278883959688
-9.435,-0.006689802763388159
-9.432499999999999,0.006613723212896259
-9.43,0.01059184632142691
-9.4275,0.005655080051264642
-9.425000000000001,-0.008831124953897193
-9.422499999999999,0.00467394702564688
-9.42,-0.009661124352986028
-9.4175,-0.008540143710400086
-9.414999999999999,-0.0005784818755900536
-9.4125,0.008680618697410283
-9.41,0.01050342710963559
-9.407500000000001,-0.001496549612540093
-9.404999999999999,0.003593633217540366
-9.4025,-0.0003659082861754709
-9.4,-0.01004859547308159
-9.397500000000001,-0.00509906919184643
-9.395,-0.009963652806667594
-9.3925,0.005064471917261133
-9.390000000000001,0.01234891556330715
-9.387499999999999,0.007828077917738494
-9.385,0.005390511474610908
-9.3825,-0.008159306465529219
-9.380000000000001,-0.007363071043617584
-9.3775,-0.00634863515521658
-9.375,-0.005657627634831033
-9.3725,0.01166718739366555
-9.369999999999999,0.002253635526228251
-9.3675,0.006741421579306266
-9.365,0.005604661376010895
-9.362500000000001,-0.003342317176101069
-9.359999999999999,-0.009272255358789576
-9.3575,-0.0076278604627562
-9.355,-0.006227298049275798
-9.352499999999999,0.0009243352954246559
-9.35,0.009326539760379894
-9.3475,0.008485034247620555
-9.345000000000001,0.004890920419998585
-9.342499999999999,-0.002470008802230507
-9.34,-0.008211921484845801
-9.3375,-0.006918937557265163
-9.335000000000001,-0.003785929725517577
-9.3325,0.005116205813056011
-9.33,0.006085581674315999
-9.327500000000001,0.00615857351147217
-9.324999999999999,0.001651397541766403
-9.3225,0.003756962743117844
-9.32,-0.001261235450809043
-9.317500000000001,-0.01732646326423513
-9.315,-0.005282964290600038
-9.3125,0.01142683137184548
-9.31,0.01040787400755007
-9.307499999999999,-0.00888134423592884
-9.305,0.0009159011570663324
-9.3025,-0.002555334099256447
-9.300000000000001,-0.0005880584554054206
-9.297499999999999,-0.006081950865627266
-9.295,-0.009790966828088717
-9.2925,0.003428475020487864
-9.289999999999999,0.01287535492749674
-9.2875,0.01524904407904416
-9.285,0.001579415564069675
-9.282500000000001,-0.01422609753541812
-9.279999999999999,-0.01606539926083308
-9.2775,0.006606901018668977
-9.275,0.007331311057534243
-9.272500000000001,0.0004568579654883088
-9.27,0.004366261538045295
-9.2675,0.001837830844159965
-9.265000000000001,0.002403737047416757
-9.262499999999999,-0.0004727792828248023
-9.26,-0.005499854311642394
-9.2575,-0.009280587324778647
-9.255000000000001,0.003715633246179174
-9.2525,0.0002173596579871777
-9.25,-0.001033615764569476
-9.2475,0.0138380826555964
-9.244999999999999,-0.001493830129240276
-9.2425,-0.008147524794290992
-9.24,-0.005057182642832878
-9.237500000000001,7.431810082602752e-05
-9.234999999999999,-0.0003706386983009952
-9.2325,-0.0003742142161944051
-9.23,-0.006608568383728267
-9.227499999999999,0.01303202625790483
-9.225,0.0059838322206953
-9.2225,-0.005081699701632911
-9.220000000000001,-0.002532815118885041
-9.217499999999999,-0.002820495117521816
-9.215,-0.003941350615568688
-9.2125,-0.0006493419339031941
-9.210000000000001,0.00282801211548515
-9.2075,0.009262024773464089
-9.205,0.003536781947964381
-9.202500000000001,0.0002471684074904183
-9.199999999999999,-0.003072328729940856
-9.1975,-0.007231876821114561
-9.195,-0.007920603301234494
-9.192500000000001,0.00132231126982392
-9.19,0.01026619019136992
-9.1875,0.009238286511748583
-9.185,-0.005344293461752071
-9.182499999999999,-0.003865208987204965
-9.18,-0.003989156850149872
-9.1775,-0.004599044174201433
-9.175000000000001,-0.0008798674566981059
-9.172499999999999,0.002829901754492849
-9.17,0.01359351622978791
-9.1675,0.01612565747015789
-9.164999999999999,-0.006339228598889389
-9.1625,-0.01560476924305621
-9.16,-0.01047280731120057
-9.157500000000001,-0.006798701699388929
-9.154999999999999,0.003460360407178867
-9.1525,0.007655127002140916
-9.15,0.003937435459692409
-9.147500000000001,0.001160540751331399
-9.145,0.00403455787356675
-9.1425,0.001290536701548558
-9.140000000000001,-0.008633859047113444
-9.137499999999999,-0.008570259273878436
-9.135,-0.005202164916411941
-9.1325,0.008584275088929992
-9.130000000000001,0.0119538211647329
-9.1275,0.006282311622597121
-9.125,0.001938413144909078
-9.1225,-0.004519418481509538
-9.119999999999999,-0.0134128224153336
-9.1175,-0.01113925741914235
-9.115,0.002474484287138885
-9.112500000000001,0.01242535403552209
-9.109999999999999,0.008763474010513493
-9.1075,0.00624693187759888
-9.105,0.0008420718295167207
-9.102499999999999,-0.007667699761318715
-9.1,-0.01601560336624797
-9.0975,-0.004038019646347609
-9.095000000000001,0.01003718911605173
-9.092499999999999,-0.01045518103378118
-9.09,0.01018780534120022
-9.0875,0.01096378131083228
-9.085000000000001,0.002687948989399105
-9.0825,-0.005373239206416482
-9.08,-0.01446765759616253
-9.077500000000001,0.0009094454832537756
-9.074999999999999,0.007806419979814781
-9.0725,0.0006775127749627868
-9.07,-0.001963374823250358
-9.067500000000001,0.008555244989596818
-9.065,0.00446755255691049
-9.0625,0.001360300614530999
-9.06,-0.008712416560292058
-9.057499999999999,-0.00866757864524715
-9.055,-0.003141298638608004
-9.0525,-0.002198885900365483
-9.050000000000001,0.005353272107905956
-9.047499999999999,0.01215937738215299
-9.045,-0.00520549126335079
-9.0425,-0.006834475999688313
-9.039999999999999,0.001670860057443239
-9.0375,-0.00677870948068872
-9.035,-0.004821547917807557
-9.032500000000001,0.01047237499551625
-9.029999999999999,0.01360706649520763
-9.0275,0.002958771585941819
-9.025,-0.005999000275187814
-9.022500000000001,0.001863567198086845
-9.02,-0.006875515354279532
-9.0175,-0.01135635515423364
-9.015000000000001,9.070022590273201e-05
-9.012499999999999,0.003870964711131428
-9.01,0.001492913097340396
-9.0075,0.008622946489396086
-9.005000000000001,0.009758588239493115
-9.0025,-0.00430600038782532
-9,-0.007312598845195444
-8.9975,-0.009711918892756738
-8.994999999999999,-0.002466083948146421
-8.9925,0.009417996147272362
-8.99,0.01182783392727676
-8.987500000000001,-0.006872981443397833
-8.984999999999999,-0.006169652309909074
-8.9825,0.004979925926573463
-8.98,0.002498801913299813
-8.977499999999999,-0.009936252388502497
-8.975,0.0004312475542050704
-8.9725,0.007971536269419443
-8.970000000000001,-0.003260282831252799
-8.967499999999999,0.0006482991820811256
-8.965,0.001697983274268503
-8.9625,-0.002868093790577115
-8.960000000000001,-0.00752292722926781
-8.9575,-0.01251595461737256
-8.955,0.003466091372424288
-8.952500000000001,0.0159455832506333
-8.949999999999999,0.01387827627118384
-8.9475,0.003516501886520223
-8.945,-0.009816438410349255
-8.942500000000001,0.0002049759317088989
-8.94,-0.009293204841447944
-8.9375,-0.008830042860362338
-8.935,0.001151992770821
-8.932499999999999,0.00828232486694002
-8.93,0.007424653179597682
-8.9275,0.004239255192688886
-8.925000000000001,-0.002730944314607612
-8.922499999999999,-0.01036714612608025
-8.92,-0.002484622261555594
-8.9175,-0.001013242981076749
-8.914999999999999,-0.002253521246680315
-8.9125,0.01097171159354288
-8.91,-0.003789635522364949
-8.907500000000001,0.01190776637729469
-8.904999999999999,-0.0002686424936073941
-8.9025,-0.01272827012432618
-8.9,-0.005531478589067748
-8.897500000000001,-0.0009723713189841538
-8.895,0.007306367795023099
-8.8925,0.0008333313212874372
-8.890000000000001,-0.001649783627331177
-8.887499999999999,0.002419660019053924
-8.885,0.0007047711959702461
-8.8825,-0.0001420886838775369
-8.880000000000001,-0.002495320251181447
-8.8775,-0.0001788135765056613
-8.875,0.0006631863603737046
-8.8725,-0.001441571401010074
-8.869999999999999,0.002672679375570429
-8.8675,0.005126784104199627
-8.865,-0.0003101827641635867
-8.862500000000001,-0.002001371149328826
-8.859999999999999,-0.001783516560428152
-8.8575,-0.007393693892518393
-8.855,-0.006376335932413739
-8.852499999999999,0.004958633554903728
-8.85,0.01317979193023502
-8.8475,0.008646715123036367
-8.845000000000001,0.003758937221240289
-8.842499999999999,-0.00997044849205413
-8.84,-0.01065320806068248
-8.8375,-0.004594024027455682
-8.835000000000001,0.003472650009879081
-8.8325,-0.003700348923251954
-8.83,0.008112331714812333
-8.827500000000001,0.002502527260143531
-8.824999999999999,-0.004597573290585946
-8.8225,-0.0009159413744309894
-8.82,0.0006689666208232339
-8.817500000000001,-0.005443280499870078
-8.815,-0.00110209489810275
-8.8125,0.007154663868656727
-8.81,0.007112846750884283
-8.807499999999999,6.830022524903032e-05
-8.805,-0.0023065548470536
-8.8025,-7.097348313095945e-05
-8.800000000000001,0.0007019371740758064
-8.797499999999999,-0.01207315359790523
-8.795,0.001141946709417663
-8.7925,0.002974588191952717
-8.789999999999999,0.004550253762544545
-8.7875,0.007551359038153392
-8.785,0.003476304299896188
-8.782500000000001,-0.005618930624126201
-8.779999999999999,-0.01070921474306511
-8.7775,0.0002819684800043969
-8.775,0.001709146656753069
-8.772500000000001,0.001517409428041867
-8.77,0.0008609117762887087
-8.7675,-0.001820561759317393
-8.765000000000001,0.00650232341376555
-8.762499999999999,-0.001768432867748203
-8.76,-0.01234047172836586
-8.7575,-0.00253949460700538
-8.755000000000001,0.01022496819288731
-8.7525,0.006233822617831384
-8.75,0.0003425475734197485
-8.7475,0.002497884123433928
-8.744999999999999,0.002240845211921224
-8.7425,-0.005099240984534836
-8.74,-0.003428124886073957
-8.737500000000001,-0.01216449026004496
-8.734999999999999,-0.001820347014748267
-8.7325,0.002338590462361286
-8.73,0.01344379668735213
-8.727499999999999,0.007642534869249596
-8.725,-0.00152868263376442
-8.7225,-0.01036806950188572
-8.720000000000001,-0.002886246722232388
-8.717499999999999,-0.005644458408635928
-8.715,-0.002233130158428107
-8.7125,0.006155372901795356
-8.710000000000001,0.01717988806222394
-8.7075,0.003513392714541099
-8.705,0.001838697110473933
-8.702500000000001,-0.0143226288076446
-8.699999999999999,-0.0119899689525622
-8.6975,0.004102128582408274
-8.695,0.001484878164771397
-8.692500000000001,0.002159014388584041
-8.69,0.001540578898205957
-8.6875,0.0007328002516376863
-8.685,0.000177364403515578
-8.682499999999999,-0.002203480010581709
-8.68,-1.014832143508031e-05
-8.6775,0.00072492540765503
-8.675000000000001,-0.003566019044029057
-8.672499999999999,0.002775585270260659
-8.67,0.008058387949813154
-8.6675,-0.001833410163731917
-8.664999999999999,-0.004414684995896956
-8.6625,0.000701799838025877
-8.66,-0.006372511195333314
-8.657500000000001,-0.006241994451885225
-8.654999999999999,0.002618463661681414
-8.6525,0.004549376032581594
-8.65,0.005542805659840639
-8.647500000000001,0.01221508470760453
-8.645,0.001163154326104875
-8.6425,-0.005101496510455036
-8.640000000000001,-0.01157675721433652
-8.637499999999999,-0.004961304490404331
-8.635,-0.0008186436601511219
-8.6325,0.007261245588822972
-8.630000000000001,0.01349815128431625
-8.6275,0.001800027785919534
-8.625,-0.004928735313102007
-8.6225,-0.01162616754870899
-8.619999999999999,-0.005065476066183686
-8.6175,-0.003026821475539512
-8.615,-0.003291656655658017
-8.612500000000001,0.008537706951733819
-8.609999999999999,0.007020212170370894
-8.6075,0.005899251214129966
-8.605,-0.003157505410189789
-8.602499999999999,-0.002816907697620291
-8.6,0.0005231297801029019
-8.5975,-0.0006942533041837359
-8.595000000000001,-0.002955358909025388
-8.592499999999999,0.003824380737485962
-8.59,-0.003914955719205132
-8.5875,0.001413452841355281
-8.585000000000001,0.006890469405064593
-8.5825,-0.006733358231233713
-8.58,-0.002265792085661905
-8.577500000000001,-0.004144624567614945
-8.574999999999999,0.001100542558894375
-8.5725,-0.001833725048941246
-8.57,0.008536470041081727
-8.567500000000001,0.006533068797581341
-8.565,0.005440380341268801
-8.5625,-0.005554185917104667
-8.56,-0.009176430838356483
-8.557499999999999,-0.002547358611501546
-8.555,-0.003595730498275359
-8.5525,-0.0004145336643731471
-8.550000000000001,0.009313486839247539
-8.547499999999999,0.002539715418848228
-8.545,0.003542839093503821
-8.5425,0.0003672149006169467
-8.539999999999999,-0.009340468929299602
-8.5375,-0.006802249502707195
-8.535,-0.00329973269114922
-8.532500000000001,0.005535700754857483
-8.529999999999999,0.01057188766687813
-8.5275,0.01024847171729499
-8.525,-0.004493780874793134
-8.522500000000001,-0.005526500455415202
-8.52,-0.01221824373271367
-8.5175,-0.00967730384498384
-8.515000000000001,0.005581068464347702
-8.512499999999999,0.01061408378152767
-8.51,0.006020263979226935
-8.5075,0.00426436540847568
-8.505000000000001,-0.0001127064193458599
-8.5025,-0.007907017837342602
-8.5,-0.00954367312587418
-8.4975,-0.006362188700530427
-8.494999999999999,0.003562197414162378
-8.4925,0.01185850356679104
-8.49,0.007866471221024731
-8.487500000000001,0.003463745670265469
-8.484999999999999,0.0006434936619902895
-8.4825,-0.006927192317341252
-8.48,-0.004619083413571029
-8.477499999999999,-0.008425151570332721
-8.475,-0.004277180582694357
-8.4725,0.003028687377587165
-8.470000000000001,0.01916623886788865
-8.467499999999999,0.006428370721943277
-8.465,-0.002454454273331446
-8.4625,-0.01083617399167436
-8.460000000000001,-0.01152472541438908
-8.4575,-0.01150642537186436
-8.455,0.005751817401203839
-8.452500000000001,0.007131906552012629
-8.449999999999999,0.009059621560537074
-8.4475,0.001911322889932615
-8.445,0.003035006695150135
-8.442500000000001,-0.002028543923177877
-8.44,-0.01142993454370883
-8.4375,0.0005321057918578493
-8.435,0.002185218309551859
-8.432499999999999,-0.004496427087184709
-8.43,0.003538057877505129
-8.4275,0.006960956008941397
-8.425000000000001,0.007509933660775916
-8.422499999999999,-0.003745621405890622
-8.42,-0.003908282924749657
-8.4175,-0.002436224009884452
-8.414999999999999,-0.00737343511889692
-8.4125,0.0002396354423220534
-8.41,0.01118947826130959
-8.407500000000001,0.001963926701274057
-8.404999999999999,-0.001878218236141787
-8.4025,-0.002425443368855219
-8.4,-0.008039959262599981
-8.397500000000001,0.003860504952846632
-8.395,-0.006438898744469314
-8.3925,0.01178041927153463
-8.390000000000001,0.006873683314341579
-8.387499999999999,-0.008078405762741667
-8.385,-0.005654753719477214
-8.3825,-0.0005121169904026174
-8.380000000000001,-0.002850778669058294
-8.3775,-0.004643468264596996
-8.375,0.002951657762170226
-8.3725,0.004330672380695571
-8.369999999999999,0.0116048472492289
-8.3675,0.007371163429195555
-8.365,0.003081317111614338
-8.362500000000001,-0.01231056498353708
-8.359999999999999,-0.00625431560736182
-8.3575,-0.01029883973565187
-8.355,-0.001245765281478121
-8.352499999999999,0.006511295854135544
-8.35,0.004427729674195491
-8.3475,0.006256939665786219
-8.345000000000001,0.006549623421464243
-8.342499999999999,-0.004416338467856258
-8.34,-0.01272627371531145
-8.3375,-0.006273465055173827
-8.335000000000001,0.002580279709018525
-8.3325,0.01090316812784693
-8.33,0.003040210186504053
-8.327500000000001,-0.002894485747129113
-8.324999999999999,0.002636951341352651
-8.3225,0.001324536125890158
-8.32,0.0003698008549401584
-8.317500000000001,-0.01285146459229213
-8.315,-0.001607573850206175
-8.3125,0.007021054416433111
-8.31,0.005028937511995368
-8.307499999999999,0.01090671237701779
-8.305,0.00435376649233934
-8.3025,-0.0165422725650351
-8.300000000000001,-0.006415289523450217
-8.297499999999999,-0.009040038205364096
-8.295,0.002121136178188542
-8.2925,0.009266040482330099
-8.289999999999999,0.01015549537700128
-8.2875,0.006486012702406471
-8.285,-0.0036493957760012
-8.282500000000001,-0.01198198963803569
-8.279999999999999,-0.0122066969315431
-8.2775,-0.007514587688899701
-8.275,0.0118691159236091
-8.272500000000001,0.01369517237132996
-8.27,0.002576258293200762
-8.2675,0.002116730201822451
-8.265000000000001,-0.009495250508163106
-8.262499999999999,-0.005404916718470619
-8.26,-0.004057154871777938
-8.2575,0.0001029506332722328
-8.255000000000001,0.007828749815120054
-8.2525,0.007346699232225015
-8.25,-0.004188784903086811
-8.2475,0.006360480116009332
-8.244999999999999,0.001013677726556418
-8.2425,-0.007543757582796886
-8.24,-0.005323781408758283
-8.237500000000001,-0.01101045947995339
-8.234999999999999,-0.0001004308534514169
-8.2325,0.009954768113276067
-8.23,0.00729248831187382
-8.227499999999999,0.005683601901629539
-8.225,-0.003451580245656623
-8.2225,-0.005148715030562329
-8.220000000000001,-0.007956596381442527
-8.217499999999999,-0.003658878641791245
-8.215,0.0098347450449075
-8.2125,0.01261834678725173
-8.210000000000001,-0.002013727024087775
-8.2075,0.0002746264286335498
-8.205,0.0009301626213379436
-8.202500000000001,-0.00559387848331726
-8.199999999999999,-0.009836881465343918
-8.1975,-0.001030372555416832
-8.195,0.004433949950330613
-8.192500000000001,0.004523825621566235
-8.19,0.004913554405102587
-8.1875,0.003124601645580667
-8.185,0.001308051214428161
-8.182499999999999,-0.0104404614866768
-8.18,-0.01240581258272963
-8.1775,-0.006089724418951734
-8.175000000000001,0.002646691664627363
-8.172499999999999,0.008778101017997288
-8.17,0.01164671049946385
-8.1675,0.005928156267591241
-8.164999999999999,-0.004672419574138457
-8.1625,-0.008507685533084395
-8.16,-8.434758217139552e-05
-8.157500000000001,0.0006299374912615237
-8.154999999999999,0.0006220266231139452
-8.1525,-0.006002828909353099
-8.15,0.01114460860809554
-8.147500000000001,0.01250818073038949
-8.145,-0.006807081812960777
-8.1425,-0.01696647392682344
-8.140000000000001,-0.01160068372766246
-8.137499999999999,0.003223997895278402
-8.135,0.01753867905822222
-8.1325,0.002702355088450147
-8.130000000000001,0.0009544465048685622
-8.1275,-0.002127358258313813
-8.125,-0.002323841435578577
-8.1225,0.0006446147260977733
-8.119999999999999,-0.004996939666016225
-8.1175,-0.002799597449400819
-8.115,0.003279028813906258
-8.112500000000001,0.006151131186484122
-8.109999999999999,0.0004534644472880386
-8.1075,0.00475645538875599
-8.105,-0.006298895785992848
-8.102499999999999,-0.009650575051926444
-8.1,-0.004872583463434151
-8.0975,0.002875810652106234
-8.095000000000001,0.002209100749169293
-8.092499999999999,0.01175632672600658
-8.09,0.001841868123381713
-8.0875,-0.002182245655211038
-8.085000000000001,0.00158147107083733
-8.0825,-0.01054016369696582
-8.08,-0.004085216586888978
-8.077500000000001,0.008167544857353316
-8.074999999999999,-0.003696430138618036
-8.0725,0.002298193384585342
-8.07,0.009778202951810023
-8.067500000000001,-5.282240143771391e-05
-8.065,-0.005435636444940799
-8.0625,-0.0008542916732432724
-8.06,-0.01175215923865894
-8.057499999999999,-0.004415976027258165
-8.055,-0.0002460357130242414
-8.0525,0.01825149950090482
-8.050000000000001,0.01091038858624981
-8.047499999999999,-0.002176722230659887
-8.045,-0.007815463618820571
-8.0425,-0.01089578373374533
-8.039999999999999,-0.003414620833036018
-8.0375,0.002539026539611302
-8.035,-0.004973711970596165
-8.032500000000001,0.007223001343978104
-8.029999999999999,0.0105942489879859
-8.0275,-0.003051483496641594
-8.025,-0.004281948536876664
-8.022500000000001,-0.005146332653934915
-8.02,0.002954609291818084
-8.0175,0.00237464254932078
-8.015000000000001,0.00125396470208575
-8.012499999999999,0.00464356978916397
-8.01,0.006086445371738114
-8.0075,0.004190499131182213
-8.005000000000001,-0.004457276724266986
-8.0025,-0.009852061886855671
-8,-0.009929288140389382
-7.9975,0.0003019000636977475
-7.995,0.003594396823171515
-7.9925,0.005414630492680299
-7.99,0.008159698357586757
-7.9875,0.003761726533895405
-7.985,0.0008266903355869245
-7.9825,-0.008980233814956684
-7.98,-0.01299507712811012
-7.9775,-0.005005596894133953
-7.975,0.01024454048236298
-7.9725,0.004947875621691479
-7.97,0.005502923091952201
-7.9675,0.007791781818978449
-7.965,-0.007246749488306877
-7.9625,-0.01155599556930818
-7.96,-0.01060594796778326
-7.9575,0.004484785001158609
-7.955,0.003510743791252736
-7.9525,0.008194334725330168
-7.95,0.004429010915047388
-7.9475,-0.002808601419123476
-7.945,0.0022549902861463
-7.9425,-0.003317076366478942
-7.94,-0.006005467041976124
-7.9375,-0.0003034484572861267
-7.935,-0.000410705625184369
-7.9325,0.006093234578888235
-7.93,0.005881658528517638
-7.9275,-0.00286509942275652
-7.925,-0.006788228506971831
-7.9225,0.0009343319981993133
-7.92,-0.001109228555253461
-7.9175,-0.001357234710473663
-7.915,0.005469431765146111
-7.9125,0.00560904129065374
-7.91,-0.005040625171584567
-7.9075,0.004010142699416884
-7.905,-0.005171162931058203
-7.9025,-0.004085699376708402
-7.9,-0.004254747359853652
-7.8975,0.001603353558371017
-7.895,0.00292990535163621
-7.8925,0.0001014560470524369
-7.89,0.005498320631250665
-7.8875,0.007276481745635699
-7.885,-0.001351742833036566
-7.8825,-0.005826363303418691
-7.88,-0.01142186912763818
-7.8775,-0.002447218314186151
-7.875,0.001500030155872833
-7.8725,0.008609283501643179
-7.87,0.00974333429826111
-7.8675,0.00206347445769048
-7.865,-0.003428749746962437
-7.8625,-0.001794047058662323
-7.86,-0.004801395252262014
-7.8575,-0.008181651216473459
-7.855,-0.001860401611222461
-7.8525,0.003099647635449732
-7.85,0.009921811756806459
-7.8475,0.004068289908056816
-7.845,-0.01010382019314015
-7.8425,-0.0002498995519999495
-7.84,-0.003246969562711341
-7.8375,-0.0008515383874731863
-7.835,0.004532353143258894
-7.8325,0.006683423675591309
-7.83,0.006916841912310971
-7.8275,0.00216701917893056
-7.825,-0.004515396742245236
-7.8225,-0.007105930624555307
-7.82,-0.01157370546424904
-7.8175,-0.004290282568131037
-7.815,0.006192286695219072
-7.8125,0.01152110612035029
-7.81,0.0109245414775458
-7.8075,-0.002046348319919732
-7.805,-0.007697263547421358
-7.8025,-0.006574933561308858
-7.8,-0.001506718270270203
-7.7975,-0.005608205157869748
-7.795,-0.002658793083137281
-7.7925,0.003615535607464624
-7.79,0.01280076011523005
-7.7875,0.008737059816614231
-7.785,0.003970458953537161
-7.7825,-0.01618044085818887
-7.78,-0.01870498627905615
-7.7775,-0.001609579783868811
-7.775,0.01322320514627763
-7.7725,0.008750615918575481
-7.77,0.01022172682866436
-7.7675,-0.001785471591516608
-7.765,-0.0093434690828436
-7.7625,-0.01246681798052743
-7.76,-0.002260036947539476
-7.7575,0.00627769077171182
-7.755,0.01092487731565836
-7.7525,0.00182820745082832
-7.75,0.0002084587659686137
-7.7475,-0.002539299697583279
-7.745,-0.004589994992817076
-7.7425,0.0007718124991356369
-7.74,-0.008374499983100759
-7.7375,-0.0060263911125151
-7.735,0.00986836810533488
-7.7325,0.009186349689548566
-7.73,0.007497951534655638
-7.7275,0.001880585913708344
-7.725,-0.002852717798628588
-7.7225,-0.009695732174843806
-7.72,-0.006063884002998422
-7.7175,-0.008864476010162494
-7.715,0.002169522629702428
-7.7125,0.01137957295789978
-7.71,0.003626287994171328
-7.7075,-0.00250072790100766
-7.705,-0.001440037517004135
-7.7025,-0.002650538447572485
-7.7,0.002233928938888194
-7.6975,-0.003389620852285392
-7.695,-0.01031971023667779
-7.6925,0.01053826370971733
-7.69,0.01124903969699738
-7.6875,0.00496650774221266
-7.685,0.0009327885054463741
-7.6825,-0.01140823126054978
-7.68,-0.01106671308272102
-7.6775,-0.002378185354814872
-7.675,0.003573163729155677
-7.6725,0.006287973545832208
-7.67,0.008990171782506558
-7.6675,0.002127156013326738
-7.665,-0.005244090051934543
-7.6625,-0.003526793496950505
-7.66,-0.007956364849384799
-7.6575,-0.006325734885808692
-7.655,0.009446765711427021
-7.6525,0.01101507442171043
-7.65,0.00510975583135267
-7.6475,-0.005233469545805969
-7.645,-0.006637414350414456
-7.6425,-0.006639758437021611
-7.64,-0.006173986861532691
-7.6375,0.007024532293309555
-7.635,0.004427920132875907
-7.6325,0.008212474442220704
-7.63,0.006266821780261985
-7.6275,-0.003208377314304281
-7.625,-0.007240261757479869
-7.6225,-0.01000959319025696
-7.62,-0.004897280353179843
-7.6175,0.005098632937257466
-7.615,0.002186595970695358
-7.6125,0.004614866185691701
-7.61,0.0100013743119749
-7.6075,-0.0006146386922922285
-7.605,-0.001786844330397953
-7.6025,-0.01211194354313228
-7.6,-0.008697201083471212
-7.5975,0.002216816766401963
-7.595,0.00711553594204449
-7.5925,0.008096086723053848
-7.59,0.00738765247323903
-7.5875,0.004266449973484536
-7.585,-0.01332514137723747
-7.5825,-0.01611164778530649
-7.58,-0.002242757321055355
-7.5775,0.00538249140472969
-7.575,0.007948681359628111
-7.5725,0.00357349082960954
-7.57,0.009225295104261799
-7.5675,0.003253659979038497
-7.565,-0.004260386368268415
-7.5625,-0.01573345423161339
-7.56,-0.0112870800921338
-7.5575,0.0009822256499249704
-7.555,0.01319414734763918
-7.5525,0.01423858688867126
-7.55,0.004773351295459109
-7.5475,-0.004498704916203126
-7.545,-0.005832536768892455
-7.5425,-0.006125834118996646
-7.54,-0.005957746894984023
-7.5375,-0.001448638910390088
-7.535,0.004872993815610415
-7.5325,0.0008243142190753141
-7.53,0.01403787779026203
-7.5275,0.000201662558967458
-7.525,-0.01512133342944171
-7.5225,-0.003691580614413102
-7.52,0.001559988895482848
-7.5175,0.0005748644835738172
-7.515,0.002148425157629519
-7.5125,0.008213235239229571
-7.51,0.004900936701649957
-7.5075,-0.004496399715184807
-7.505,0.002632844220044861
-7.5025,-0.008777534899160064
-7.5,-0.009153154005745231
-7.4975,-0.001450963342570647
-7.495,0.00593593802352107
-7.4925,0.006080110486369968
-7.49,0.005880171155853342
-7.4875,0.00351717503633194
-7.485,-0.002896900673522996
-7.4825,-0.01028291789631859
-7.48,-0.01085562843198019
-7.4775,0.003825024777677486
-7.475,-0.001280925337975015
-7.4725,0.01240236191382312
-7.47,0.003614297968679044
-7.4675,0.00565277423587982
-7.465,-0.002254581399928648
-7.4625,-0.01038919987744057
-7.46,-0.006917070422618537
-7.4575,0.001194458136761318
-7.455,0.005558270095328832
-7.4525,0.01334797068248218
-7.45,0.006478962701121175
-7.4475,-0.008973069062768284
-7.445,-0.008493110853499167
-7.4425,-0.01139566075289343
-7.44,-0.003660026994811098
-7.4375,0.008853583134460091
-7.435,0.0116936812511641
-7.4325,0.005947280011496634
-7.43,-0.004670046452707353
-7.4275,-0.006385388690719542
-7.425,-0.002337086017397673
-7.4225,-0.006454265001229469
-7.42,-0.007432544750786187
-7.4175,0.003649687367376724
-7.415,0.01017134121249164
-7.4125,0.01262593805101363
-7.41,0.004260533435467681
-7.4075,-0.004444644618735299
-7.405,-0.001357760898332848
-7.4025,-0.01043073116164056
-7.4,-0.01150803470672188
-7.3975,-0.0009936667151454342
-7.395,0.002899173605549022
-7.3925,0.007317457373461922
-7.39,0.01443830986454625
-7.3875,-0.001585187512320089
-7.385,-0.01268660114404557
-7.3825,-0.0008004763114805613
-7.38,0.00560060476730517
-7.3775,-0.0008321758198753983
-7.375,0.001601416903719494
-7.3725,0.00391365629945371
-7.37,0.001029590886870222
-7.3675,-0.00458671254919854
-7.365,-0.0004147229781599118
-7.3625,-0.0073678364837996
-7.36,-0.002555353814452196
-7.3575,0.004299602860545468
-7.355,0.002779055033625696
-7.3525,0.003313351282567444
-7.35,0.006450373915919192
-7.3475,-0.001402281647987249
-7.345,-0.01197794454851147
-7.3425,-0.006572619157257068
-7.34,0.002048791461152062
-7.3375,0.001996058142983087
-7.335,0.005451839224329733
-7.3325,0.002348256576295862
-7.33,0.002523111813969231
-7.3275,-0.004783241630944468
-7.325,0.003155015364255494
-7.3225,-0.006063179227899017
-7.32,-0.0003887899149023643
-7.3175,0.003780939118913307
-7.315,0.001567866201957448
-7.3125,0.008723621484863291
-7.31,0.003449219097297199
-7.3075,-0.001782352900284688
-7.305,-0.009209460198756025
-7.3025,-0.008088644710048989
-7.3,-0.006682661323853335
-7.2975,0.0006486094320422821
-7.295,0.002839068611602656
-7.2925,0.01521910055263383
-7.29,0.004896613308597552
-7.2875,0.003796405829584394
-7.285,-0.004432220764530539
-7.2825,-0.009697074467601057
-7.28,-0.007665082563438569
-7.2775,-0.001867916966089828
-7.275,0.005046806563244546
-7.2725,0.007507247870965441
-7.27,0.005395632315729151
-7.2675,-0.001668233071319118
-7.265,-0.01400353944497977
-7.2625,0.0001120182275187659
-7.26,0.002647024256060482
-7.2575,0.004584733016054006
-7.255,-0.005065549771215994
-7.2525,7.521160640751181e-05
-7.25,0.01026516286626293
-7.2475,0.00114728173485131
-7.245,-0.004466487385887481
-7.2425,-0.006719905959803469
-7.24,-0.009099627015507157
-7.2375,4.006009800189346e-05
-7.235,0.01370314814440272
-7.2325,0.01290609860268071
-7.23,-0.0009054656872819304
-7.2275,-0.007282148127698164
-7.225,-0.01081672124782537
-7.2225,-0.001391417813511418
-7.22,-0.001959135592574046
-7.2175,0.009248885304103964
-7.215,0.0008672417934846424
-7.2125,0.00836685175273149
-7.21,-0.01153864332571198
-7.2075,-0.003035517722684666
-7.205,0.009490036980379046
-7.2025,-0.004925906252338887
-7.2,-0.005681100589490884
-7.1975,-0.003714224251129655
-7.195,0.01115050013002572
-7.1925,0.009624433067800652
-7.19,-0.00102213293023
-7.1875,-0.00629825454757936
-7.185,-0.001344472310247404
-7.1825,-0.001294596491057822
-7.18,0.001354034183105676
-7.1775,-0.006797608259175606
-7.175,0.001645544837719209
-7.1725,0.01019660604103415
-7.17,0.004812069376378435
-7.1675,-0.0137470443268583
-7.165,0.002446611374758668
-7.1625,-0.001616700658992001
-7.16,-0.004466211147075036
-7.1575,-0.001545450008086731
-7.155,0.006410974878066191
-7.1525,0.006559475083091822
-7.15,-0.002331961279629282
-7.1475,-0.004385085873417693
-7.145,-0.003356978183028925
-7.1425,-0.001703294092214127
-7.14,-0.002613322366262738
-7.1375,0.0002303347652497861
-7.135,0.005341137201341465
-7.1325,0.007085328213997961
-7.13,0.0006468643889675687
-7.1275,0.004627395593242034
-7.125,-0.01073790922198693
-7.1225,-0.007413395053271698
-7.12,0.002969189258930033
-7.1175,-0.003235225929393393
-7.115,0.01084510815251379
-7.1125,0.007050406619604105
-7.11,0.003032151056954878
-7.1075,-0.005870698177906913
-7.105,-0.00867209836484106
-7.1025,-0.008345667378551852
-7.1,-0.002851237184261839
-7.0975,0.008599453022471608
-7.095,0.002678752387021777
-7.0925,0.008164803723124543
-7.09,-0.001700802782740557
-7.0875,-7.226543590493506e-05
-7.085,-0.003754066292103783
-7.0825,-0.00564171318758522
-7.08,0.002311599297411703
-7.0775,-0.002319334289335606
-7.075,0.001295645609078199
-7.0725,0.01050039391800833
-7.07,0.007341550433052544
-7.0675,-0.007210621295120921
-7.065,-0.007118988406822201
-7.0625,0.002070995864815603
-7.06,-0.004180186331270041
-7.0575,-0.002505015400231517
-7.055,-0.0009683557248838771
-7.0525,0.01268063474047926
-7.05,0.001646032211320545
-7.0475,-0.0005485501719319436
-7.045,-0.003192289488958528
-7.0425,-0.009206171406205275
-7.04,-0.003362697097152814
-7.0375,0.002024776598097231
-7.035,0.003029876716254059
-7.0325,0.01068740572356894
-7.03,0.006939789818492454
-7.0275,-0.001272440033621343
-7.025,-0.01414510135803105
-7.0225,-0.008659114729920262
-7.02,-0.005575291896780975
-7.0175,0.001882804013548025
-7.015,0.01426572539639131
-7.0125,0.01069581952726911
-7.01,-0.001050428511336252
-7.0075,-0.006682060697106112
-7.005,-0.00807619842784583
-7.0025,-0.007513393357007982
-7,-0.004391629047334574
-6.9975,0.008996166995865591
-6.995,0.005692675885743305
-6.9925,0.0044948179872459
-6.99,0.004466630433386337
-6.9875,-0.001539961151065507
-6.985,-0.007193634154690727
-6.9825,-0.004142468915861354
-6.98,-0.00150767909678319
-6.9775,0.00846510558100709
-6.975,0.0063571037553218
-6.9725,0.001045399015130835
-6.97,-0.009639159034885688
-6.9675,-0.009436352629714612
-6.965,-0.0014307575205707
-6.9625,0.00817582181984455
-6.96,0.003932289860984526
-6.9575,-0.001144309528216678
-6.955,0.008242541460064867
-6.9525,0.008152579123569696
-6.95,-0.003566924603411615
-6.9475,-0.008206889164587452
-6.945,-0.008674988463157103
-6.9425,-0.005443227837155552
-6.94,-0.0001138275758828146
-6.9375,0.003833525634654184
-6.935,0.001525791131456795
-6.9325,0.01504572595936837
-6.93,0.003044479311208704
-6.9275,-0.01490348350489621
-6.925,-0.008686663366576254
-6.9225,0.001030831118429881
-6.92,0.005993865377651537
-6.9175,0.001054592052613207
-6.915,0.003249191843152842
-6.9125,0.009091138833333248
-6.91,0.005361709919300699
-6.9075,-0.002228179067506436
-6.905,-0.01877302217415928
-6.9025,-0.00845091259447764
-6.9,-0.001709922745640262
-6.8975,0.007584142309808015
-6.895,0.01197324023753126
-6.8925,0.006633997693049671
-6.89,0.0001370789043385979
-6.8875,0.004297208736049206
-6.885,-0.006626415834831171
-6.8825,-0.02469131986098713
-6.88,-0.004058922148647043
-6.8775,0.008656519499492674
-6.875,0.01376728694895445
-6.8725,0.007967982090371913
-6.87,0.005049623931641323
-6.8675,-0.01278020109406662
-6.865,-0.00947962907528441
-6.8625,-0.0004245449250144072
-6.86,0.002759611564566713
-6.8575,-0.001509566337319592
-6.855,0.008289066803415769
-6.8525,0.001938893837666172
-6.85,-0.005187883673638259
-6.8475,0.005094688536560053
-6.845,0.002279744927540482
-6.8425,-0.01230746952195794
-6.84,-0.003857772426839563
-6.8375,0.006844649186240786
-6.835,0.0056126872581988
-6.8325,0.007263010612507762
-6.83,0.002850302298519676
-6.8275,-0.001860146782542405
-6.825,-0.009083166041402477
-6.8225,-0.007943642142511195
-6.82,-0.002335181597924882
-6.8175,0.002572684413236884
-6.815,0.003203943991912017
-6.8125,0.004289579916544372
-6.81,-0.003403028670709119
-6.8075,0.001741035898289684
-6.805,-0.003603494793115706
-6.8025,0.0002751152749790035
-6.8,-0.007045189993538582
-6.7975,-0.0003546718472527886
-6.795,0.01051974493343304
-6.7925,0.01216276861078821
-6.79,-0.0005451495208607224
-6.7875,-0.002441794077551526
-6.785,-0.004246863050369646
-6.7825,-0.00744291756971798
-6.78,-0.009854497010342434
-6.7775,0.005948667781602042
-6.775,0.01527259217662181
-6.7725,0.008163380685328068
-6.77,-0.008026525055501122
-6.7675,-0.006035739243268508
-6.765,-0.007267909226003758
-6.7625,-0.004840337450584647
-6.76,-1.444348072534208e-05
-6.7575,0.01010556446594651
-6.755,0.007405998019033778
-6.7525,-0.004891815687669775
-6.75,-0.002827846019780238
-6.7475,-0.007414815636405902
-6.745,-0.001795271837088461
-6.7425,-0.00134742733129559
-6.74,0.005707359344854498
-6.7375,0.001577224390999518
-6.735,0.0080903043947913
-6.7325,0.002849002622241538
-6.73,0.002115731323469348
-6.7275,-0.003207804966074279
-6.725,-0.005856025323462553
-6.7225,-0.006578279323995464
-6.72,-0.002123618760234868
-6.7175,-0.004062275240010077
-6.715,0.007510093211032883
-6.7125,0.01694041162246062
-6.71,-0.001416829321183292
-6.7075,-0.0006033012985650416
-6.705,-0.002222955502017062
-6.7025,-0.01252689223011228
-6.7,-0.01106948209013494
-6.6975,0.0001185250131395004
-6.695,0.01443374393405066
-6.6925,0.01144232192386396
-6.69,0.008103110611820851
-6.6875,-0.01531232756812598
-6.685,-0.01288476970285001
-6.6825,-0.0006644661151958988
-6.68,0.005794892596378001
-6.6775,0.001432097793275117
-6.675,-0.002707870140856047
-6.6725,-0.0009039363599947211
-6.67,0.01280898814702469
-6.6675,0.008124873911878142
-6.665,-0.009368062269798992
-6.6625,-0.01579345316068199
-6.66,0.01162325124216046
-6.6575,0.009843688680604404
-6.655,-0.005225868506758337
-6.6525,-0.006081791615166008
-6.65,0.002387290115101633
-6.6475,-0.008480581562837859
-6.645,-0.0130442003936707
-6.6425,0.007540142636194533
-6.64,0.02421558559006982
-6.6375,0.02457016020944307
-6.635,-0.03168844117794985
-6.6325,-0.03806620225936014
-6.63,0.006570164407059622
-6.6275,0.02313601254076221
-6.625,0.006864182867276418
-6.6225,-0.001240390509913246
-6.62,-0.01196324843690228
-6.6175,0.006145876896909845
-6.615,0.01828787387912914
-6.6125,0.006687611118947292
-6.61,0.006588484339797173
-6.6075,-0.017281861333695
-6.605,-0.0248689586373527
-6.6025,0.007831149666452682
-6.6,0.0007878934273482316
-6.5975,0.0002588838482823551
-6.595,0.0318779572403234
-6.5925,-0.01468658279260063
-6.59,-0.06062200719012686
-6.5875,0.003027835706309695
-6.585,0.033694176727007
-6.5825,0.02225215980481147
-6.58,0.005495277169717228
-6.5775,-0.004362823623321067
-6.575,0.02169857368777296
-6.5725,0.0006475457701123165
-6.57,-0.04489815830889562
-6.5675,-0.01490259589080664
-6.565,0.02643295890064985
-6.5625,-0.0105134818322955
-6.56,-0.01447032398356112
-6.5575,0.02813755407764646
-6.555,0.005834573440348868
-6.5525,-0.01025759816919185
-6.55,0.005395658074330107
-6.5475,-0.01063163160244129
-6.545,0.0009364530469624578
-6.5425,0.006553207623833207
-6.54,0.003739838360134129
-6.5375,0.003467984902038372
-6.535,-0.000103399288325743
-6.5325,0.002999387295379636
-6.53,-0.009896288249224941
-6.5275,-0.006077237757945704
-6.525,-0.006683780002945966
-6.5225,0.004229953793897202
-6.52,0.008342399373335413
-6.5175,0.008581738983029644
-6.515,-0.001069160755392738
-6.5125,0.002510707981879681
-6.51,0.004849939127878883
-6.5075,-0.0132758083863492
-6.505,0.005004707653014989
-6.5025,-0.0270056253086912
-6.5,-0.0143707794589928
-6.4975,0.02947591866759587
-6.495,0.01556895026180176
-6.4925,-0.00152606121774239
-6.49,-0.006628434401362627
-6.4875,-0.005740660812557414
-6.485,0.001049999261704945
-6.4825,-0.009855101738181299
-6.48,-0.005388610731717813
-6.4775,0.01521607517990694
-6.475,-0.0008694153523615818
-6.4725,0.01537262251819618
-6.47,0.01053038457378474
-6.4675,-0.005828235835195648
-6.465,-0.01751077772646143
-6.4625,-0.003934404170612117
-6.46,-0.01275750407975407
-6.4575,-0.002210686044236835
-6.455,4.181254598610288e-05
-6.4525,0.02204065682774806
-6.45,0.008007588884322455
-6.4475,0.002329175615488102
-6.445,-0.008978964558364265
-6.4425,-0.00498897279484765
-6.44,0.004668641596910625
-6.4375,-0.0130732777688463
-6.435,-0.01388181834921901
-6.4325,0.01466062965962673
-6.43,0.01632301295812904
-6.4275,-0.0001295624670545626
-6.425,-0.001310288938112814
-6.4225,-0.02245650500218121
-6.42,0.002655341277569532
-6.4175,0.009988981432372444
-6.415,0.0127854562980986
-6.4125,0.004471715274489844
-6.41,0.008459890919441469
-6.4075,0.002232621844831776
-6.405,-0.01985293378800839
-6.4025,-0.03647320494548439
-6.4,-0.002252414522161445
-6.3975,0.01216057222826992
-6.395,0.01859520435832361
-6.3925,0.01135176869967749
-6.39,0.006630582738555881
-6.3875,-0.008164719659655035
-6.385,-0.009907965763290751
-6.3825,-0.008746180508757383
-6.38,0.001435979261443614
-6.3775,0.01490141785076336
-6.375,0.002938361611646729
-6.3725,-0.01495542952864684
-6.37,0.006184772182361365
-6.3675,0.01081620230987112
-6.365,-0.008875449580735932
-6.3625,0.01567038742045968
-6.36,-0.001405240071253678
-6.3575,-0.03206554379817218
-6.355,0.01063897518411953
-6.3525,-0.009051039730420601
-6.35,0.01131104710165578
-6.3475,0.02218690681397992
-6.345,0.01927410133839984
-6.3425,-0.05939616136421159
-6.34,-0.01989525794905567
-6.3375,0.01805276356236971
-6.335,0.03003136343180904
-6.3325,0.01591695105044466
-6.33,-0.001383111182469723
-6.3275,-0.008736094101820161
-6.325,-0.00777543144648465
-6.3225,-0.03844166007589264
-6.32,0.0003716101624046124
-6.3175,0.02379641422965404
-6.315,0.06909315295199091
-6.3125,0.02318656686477922
-6.31,-0.05645783070711666
-6.3075,-0.003544090250565346
-6.305,-0.107855296782962
-6.3025,0.001563247547018287
-6.3,0.02254057135259722
-6.2975,0.03561541012126485
-6.295,0.07709942345761113
-6.2925,-0.007227658583592797
-6.29,0.02277317492519748
-6.2875,0.1323281099425056
-6.285,-0.1975431552514142
-6.2825,-0.0453550828251402
-6.28,-0.06622369273180691
-6.2775,-0.002662820842936859
-6.275,0.09186278947019184
-6.2725,0.04071512693191595
-6.27,0.02477713216378408
-6.2675,0.1203629644641454
-6.265,-0.005354322099139289
-6.2625,-0.1876401710041803
-6.26,-0.2112734541502445
-6.2575,0.08663177329818515
-6.255,0.1180787594973459
-6.2525,0.00377040544376112
-6.25,0.1789650221996372
-6.2475,-0.08344617551032364
-6.245,-0.05327145522340883
-6.2425,0.07328011324358888
-6.24,-0.1704522117471186
-6.2375,-0.08518819171104286
-6.235,-0.0001080192089032842
-6.2325,0.2217997185395449
-6.23,0.1283462935760127
-6.2275,0.02580846629056715
-6.225,-0.2183344406832194
-6.2225,-0.2250826769783884
-6.22,0.05407366005836937
-6.2175,0.1132500904673046
-6.215,0.0802429198064669
-6.2125,0.04428302223069178
-6.21,0.008623491742208205
-6.2075,0.05928875329744318
-6.205,-0.2382979857701317
-6.2025,0.2084980336277881
-6.2,-0.03870574227253779
-6.1975,-0.07196852394507093
-6.195,-0.08046786927379625
-6.1925,0.06933041260310398
-6.19,0.07092362271682508
-6.1875,0.011860784874917
-6.185,-0.03797596063185767
-6.1825,-0.0397576740047856
-6.18,0.08787576225625621
-6.1775,-0.04636845837014487
-6.175,-0.08789356071096263
-6.1725,0.01552023596463171
-6.17,0.1183556631816791
-6.1675,0.1957236063616174
-6.165,-0.1802663075673504
-6.1625,-0.1947956603444529
-6.16,-0.09379626431801553
-6.1575,0.1338560384419757
-6.155,0.1234431603795705
-6.1525,0.02073023168683689
-6.15,-0.1343040734943702
-6.1475,-0.0208321688044523
-6.145,0.04426517360345765
-6.1425,0.008275415725492858
-6.14,0.1142538182306182
-6.1375,0.02415656806820786
-6.135,0.09739142794771385
-6.1325,-0.1586441491735613
-6.13,-0.2224371939940293
-6.1275,0.009027439195581724
-6.125,0.1336912991870982
-6.1225,0.05286389648615767
-6.12,-0.001102508885270184
-6.1175,-0.001649281987567097
-6.115,0.04134122545828365
-6.1125,0.2223999678207264
-6.11,-0.1847313981525401
-6.1075,-0.3057134736790267
-6.105,0.1199564514016344
-6.1025,0.02574789012787239
-6.1,-0.01571014018632511
-6.0975,0.1126974852380624
-6.095,0.1263739596047313
-6.0925,-0.2267522500591166
-6.09,0.05880351069588561
-6.0875,0.05234650605081871
-6.085,-0.04042073380178376
-6.0825,-0.08745437899586915
-6.08,0.08199761434683689
-6.0775,0.06180443736979687
-6.075,0.009672904013262712
-6.0725,-0.05826332627438206
-6.07,0.003511094534571737
-6.0675,-0.0006593738254170219
-6.065,0.008840141667388061
-6.0625,0.03194513102460667
-6.06,-0.1089203330174821
-6.0575,0.09717751652007832
-6.055,-0.0889696514931563
-6.0525,0.07935803278516292
-6.05,-0.04012149225644404
-6.0475,-0.09192322555943486
-6.045,0.2265349798523169
-6.0425,0.01669186192995192
-6.04,-0.138452480465443
-6.0375,-0.1850061869254364
-6.035,0.1651732162589046
-6.0325,0.03664863870850481
-6.03,-0.03751654300352499
-6.0275,0.08637819461408884
-6.025,-0.09530897086382369
-6.0225,-0.0123291898460151
-6.02,-0.04577386943070839
-6.0175,0.1757235483371472
-6.015,-0.1784356432740766
-6.0125,0.1878493806169118
-6.01,0.1132514689063218
-6.0075,-0.3152093012904317
-6.005,-0.03723190561715909
-6.0025,0.08059935996225398
-6,0.06713610029059824
-5.9975,-0.04650085785993616
-5.995,0.03797513781444661
-5.9925,0.02791281498350924
-5.99,0.09020969991072014
-5.9875,-0.03695475418322577
-5.985,-0.101060554740173
-5.9825,-0.06382464715198984
-5.98,0.05006402200911929
-5.9775,0.01318841038567692
-5.975,0.05315986384914479
-5.9725,0.06486136970095521
-5.97,-0.007602485372752533
-5.9675,-0.1351098496812206
-5.965,0.02825462358415432
-5.9625,-0.07717505049078729
-5.96,0.1857511436904475
-5.9575,-0.1393765691463637
-5.955,0.006562260719965984
-5.9525,0.05051938109879774
-5.95,0.09435069157158998
-5.9475,-0.1894364934755039
-5.945,-0.005915003138856484
-5.9425,0.212798463087679
-5.94,-0.01854915567914004
-5.9375,-0.02462811201744736
-5.935,-0.1999098808001502
-5.9325,-0.0484285630012684
-5.93,0.1187937049379653
-5.9275,0.07498178284914708
-5.925,0.007704826921542327
-5.9225,0.005661027125660618
-5.92,-0.08016193499152098
-5.9175,0.2244892251697112
-5.915,-0.1869156884403071
-5.9125,-0.07668795288554769
-5.91,0.05166972079564792
-5.9075,0.07427733090400689
-5.905,0.01453028647579323
-5.9025,0.02296311953803875
-5.9,-0.04273374475500478
-5.8975,-0.2095531198878147
-5.895,0.1016181645887481
-5.8925,0.0210600507396706
-5.89,0.02638513116715318
-5.8875,0.04549976561773755
-5.885,0.01071177243529528
-5.8825,0.0332083797839913
-5.88,-0.02754871470160784
-5.8775,-0.04980124137259472
-5.875,0.004758524718966533
-5.8725,0.1699371755533311
-5.87,0.05868973160994603
-5.8675,-0.4755073027763003
-5.865,0.04246833733250586
-5.8625,0.1645190223035915
-5.86,0.05164368031619895
-5.8575,0.07890781557453606
-5.855,-0.01299188090000107
-5.8525,-0.01941356176125467
-5.85,-0.07563924126761506
-5.8475,-0.04995713514847963
-5.845,0.01426242010955958
-5.8425,-0.05070537586943359
-5.84,0.1983595878894505
-5.8375,-0.004473529382822009
-5.835,0.001961210213365694
-5.8325,-0.05194706142393574
-5.83,-0.0730206701884821
-5.8275,-0.009000180468247012
-5.825,0.07114205648130764
-5.8225,-0.008604624619667487
-5.82,-0.004182894414704415
-5.8175,0.01806244374232496
-5.815,-0.03686355119491457
-5.8125,-0.09818982258197057
-5.81,0.02178243099634099
-5.8075,0.1808526551512155
-5.805,0.03566266673900434
-5.8025,-0.1797643834147623
-5.8,0.05041026692502289
-5.7975,-0.09881538367890855
-5.795,0.026124318004659
-5.7925,0.1022238189361102
-5.79,0.08554300073313335
-5.7875,-0.006584742359932129
-5.785,-0.2324808523804784
-5.7825,0.03605551327677303
-5.78,0.03706189055996681
-5.7775,0.1802798988186081
-5.775,-0.04652211113761914
-5.7725,-0.1358512769701283
-5.77,-0.06154002529887139
-5.7675,0.07657349569877749
-5.765,0.1373626403464929
-5.7625,-0.1448105400011636
-5.76,0.117510964077349
-5.7575,-0.07697359717166849
-5.755,-0.0351900998959184
-5.7525,0.003112491484472531
-5.75,0.01679095243537352
-5.7475,0.06370114714785578
-5.745,0.02043808897180456
-5.7425,-0.1125390698536373
-5.74,-0.02147888591015382
-5.7375,0.0470326117719097
-5.735,0.06213457038112431
-5.7325,0.1130758202626018
-5.73,0.03698939973101247
-5.7275,-0.3068980649140864
-5.725,-0.1166763103259992
-5.7225,0.1135026139871678
-5.72,0.08848967552249327
-5.7175,0.007318849087009211
-5.715,0.09861045791530146
-5.7125,0.1734621418644784
-5.71,-0.2159372227185806
-5.7075,-0.06790278382534116
-5.705,-0.009051756486206458
-5.7025,0.0374909576743072
-5.7,-0.05732546501470216
-5.6975,0.03339844647613741
-5.695,0.02295320334749059
-5.6925,-0.04903248049589299
-5.69,0.05031593341776186
-5.6875,0.07228821322050941
-5.685,-0.02516962162155485
-5.6825,-0.03932048181819972
-5.68,0.04361692488937999
-5.6775,-0.04571314067188419
-5.675,0.01466101948539846
-5.6725,0.02480738724028675
-5.67,0.03551309467964647
-5.6675,-0.2214534090274018
-5.665,0.04517827836901826
-5.6625,0.1270444624551867
-5.66,0.02178831485295584
-5.6575,-0.07071391644402755
-5.655,0.002619133432982817
-5.6525,0.03241995023304708
-5.65,-7.729859687001159e-05
-5.6475,-0.03001743410364877
-5.645,-0.0197692059857524
-5.6425,0.02539016959283622
-5.64,0.1411023860009736
-5.6375,0.179856500052722
-5.635,-0.4026929979915465
-5.6325,-0.08237385025366012
-5.63,0.05018888645145934
-5.6275,0.05138571176133673
-5.625,0.05510805909615298
-5.6225,0.07310361821265063
-5.62,0.001645416654697046
-5.6175,-0.007931520875048819
-5.615,-0.03779645813929177
-5.6125,0.04568705668124935
-5.61,-0.06553374982747416
-5.6075,-0.06212979259658629
-5.605,0.04832541399719215
-5.6025,0.05563939800364698
-5.6,0.04272815824360257
-5.5975,-0.04843429484876199
-5.595,-0.1088149930571007
-5.5925,0.02625400887195083
-5.59,0.07378278543457506
-5.5875,-0.06464786644606821
-5.585,0.06968482888694327
-5.5825,0.008570716687996525
-5.58,0.008243047147221641
-5.5775,-0.02272892848531807
-5.575,0.003466920639403101
-5.5725,0.09377588053010388
-5.57,-0.1806735791061319
-5.5675,0.03868773383623716
-5.565,-0.00324272746849514
-5.5625,0.04358696859770362
-5.56,-0.1002959823176207
-5.5575,0.04614073520683592
-5.555,0.0790603304674484
-5.5525,-0.02377237758349012
-5.55,-0.01049044359489546
-5.5475,0.06182666148947467
-5.545,-0.01689050886832649
-5.5425,-0.07055635601435738
-5.54,-0.005603716162163
-5.5375,0.1543273285668479
-5.535,-0.06527429620920029
-5.5325,-0.2065467365309079
-5.53,-0.007114178154765904
-5.5275,0.1025438471324277
-5.525,0.05652197848679359
-5.5225,0.04675179229122026
-5.52,0.09540967575649525
-5.5175,-0.01494105478580307
-5.515,-0.2096252065911091
-5.5125,0.005102175646996871
-5.51,-0.003992612667637098
-5.5075,0.03706368392827464
-5.505,0.07880352767765307
-5.5025,-0.00823020567613518
-5.5,-0.008510146604843649
-5.4975,-0.001027173225538272
-5.495,0.0401440997505108
-5.4925,-0.08088969402013289
-5.49,-0.01521971066007517
-5.4875,-0.02353542787708248
-5.485,0.07857335373635388
-5.4825,-0.009511852047271363
-5.48,-0.003262467674583587
-5.4775,0.008600469420928646
-5.475,-0.09287274356289398
-5.4725,0.07543376833150381
-5.47,0.2360425634807292
-5.4675,-0.1896125186413599
-5.465,-0.1979090988126651
-5.4625,0.006326160531411842
-5.46,0.09532483520832437
-5.4575,0.07287935818130778
-5.455,-0.003465873674604156
-5.4525,0.03197937622196578
-5.45,-0.02398154833538891
-5.4475,-0.02476407658242583
-5.445,0.01866899851000687
-5.4425,-0.04644276400643164
-5.44,0.001024759235166859
-5.4375,0.04196428188775142
-5.435,0.03922271797554826
-5.4325,0.00810640101690307
-5.43,-0.05433943368825866
-5.4275,-0.005025860531538048
-5.425,-0.1397285318675967
-5.4225,0.01240904319494252
-5.42,0.1263214241572109
-5.4175,0.03202970619957271
-5.415,0.01786083154500379
-5.4125,-0.02998659365893224
-5.41,0.008303438323633628
-5.4075,0.02845625806401578
-5.405,0.01980813657114978
-5.4025,-0.1311547746380277
-5.4,0.02922593218369004
-5.3975,-0.06481904616875259
-5.395,0.03546774097712058
-5.3925,0.04016061743735422
-5.39,0.0069033066998133
-5.3875,0.01013309968088949
-5.385,0.04552828818499498
-5.3825,0.001270969435066072
-5.38,0.09659675462625104
-5.3775,-0.2623394107013878
-5.375,-0.02436280378218734
-5.3725,0.04959196038637671
-5.37,0.07614102346937979
-5.3675,0.1105430765065984
-5.365,-0.07851544686787854
-5.3625,-0.004551064213448992
-5.36,0.004869558946756348
-5.3575,0.01036095365465417
-5.355,-0.03225703197376228
-5.3525,0.004409939802188403
-5.35,-0.05313581363684773
-5.3475,0.001593945120452054
-5.345,0.0340997619135803
-5.3425,0.04650328697105183
-5.34,-0.01005154835145735
-5.3375,-0.01221918218471342
-5.335,-0.04219278370055279
-5.3325,0.05147711772221378
-5.33,0.0562180511866265
-5.3275,-0.09174219368143419
-5.325,0.01809845325994738
-5.3225,0.04977055062259979
-5.32,-0.05267178964816305
-5.3175,-0.0513645848941798
-5.315,-0.003226089536047678
-5.3125,0.02045924398449952
-5.31,0.0373759955778116
-5.3075,0.03479798064403742
-5.305,0.03523422375067532
-5.3025,-0.1165983936722852
-5.3,-0.002594455732134418
-5.2975,0.0002706765053093525
-5.295,0.04152226127712499
-5.2925,0.06670098016047689
-5.29,0.01502258904542283
-5.2875,-0.06335751187997674
-5.285,-0.092385207037633
-5.2825,0.114764454105873
-5.28,-0.08853240650011011
-5.2775,0.09304586499933076
-5.275,0.02579862196687062
-5.2725,-0.08324373912212947
-5.27,-0.08495605653173953
-5.2675,0.05609870999506412
-5.265,0.04931254616512361
-5.2625,0.0107812722029473
-5.26,0.03200297794419281
-5.2575,0.007441033352418276
-5.255,-0.02279009200129292
-5.2525,-0.1132772782278117
-5.25,0.01775172649771633
-5.2475,0.08001278926825697
-5.245,-0.04743433228453241
-5.2425,0.08171080256413418
-5.24,-0.01985187568905088
-5.2375,-0.04170059403339266
-5.235,-0.04970987738428487
-5.2325,0.1690445083732786
-5.23,-0.05370822446701061
-5.2275,-0.09209973092929302
-5.225,-0.0008838288119712741
-5.2225,-0.03605282620848448
-5.22,0.1598091752027269
-5.2175,-0.03081835207761801
-5.215,0.03888119327657918
-5.2125,-0.05513850852512552
-5.21,-0.1797729193953116
-5.2075,0.01262338880032131
-5.205,0.06119358144482164
-5.2025,0.08325614193275897
-5.2,0.03257957461992337
-5.1975,-0.03105867416157731
-5.195,0.0321564997673627
-5.1925,-0.04651346484287985
-5.19,0.03899094856138784
-5.1875,0.0267482988445833
-5.185,-0.02605425727605502
-5.1825,-0.2121007469058301
-5.18,0.1085414478052177
-5.1775,0.08159744434275103
-5.175,-0.03154843109849445
-5.1725,0.09403352145451915
-5.17,-0.0347935455309297
-5.1675,-0.08541251670002581
-5.165,0.1033113113906671
-5.1625,-0.1144133672590288
-5.16,0.01504905679958676
-5.1575,0.01405036348440409
-5.155,0.140069366910305
-5.1525,-0.02360160457924923
-5.15,-0.1986540705861595
-5.1475,-0.01781666659650639
-5.145,0.09832829170718263
-5.1425,0.03272423660724092
-5.14,-0.01255556120018098
-5.1375,-0.06102138791061905
-5.135,0.1146419586574771
-5.1325,0.05187431296407705
-5.13,-0.01695005723400985
-5.1275,-0.1374673720132333
-5.125,-0.02401306308226754
-5.1225,0.03806776251098547
-5.12,0.09280296758541369
-5.1175,-0.110193537274531
-5.115,0.003392425721392622
-5.1125,0.0633203629911228
-5.11,0.02667169182060685
-5.1075,0.02317743074897876
-5.105,-0.021061617042629
-5.1025,0.02345152333202971
-5.1,-0.1282252704755992
-5.0975,-0.06278966408461277
-5.095,-0.02921551033162591
-5.0925,0.2166608131823622
-5.09,-0.005014427333867991
-5.0875,-0.0152813318130528
-5.085,0.01065487223377999
-5.0825,-0.06141233768979786
-5.08,0.01297345949984146
-5.0775,0.1092538989866638
-5.075,-0.1820082137862205
-5.0725,0.03864939077707704
-5.07,0.03756824701854047
-5.0675,-0.07315297834323548
-5.065,0.06097904115598418
-5.0625,0.04147367102010976
-5.06,-0.02162684146980645
-5.0575,0.1380266172040877
-5.055,-0.2241520941298363
-5.0525,-0.01705444880066761
-5.05,0.04800610606484694
-5.0475,0.02542819883606534
-5.045,-0.05369468625762424
-5.0425,0.0748654415022332
-5.04,0.06721770366964565
-5.0375,-0.06152408748961826
-5.035,-0.0293769506236918
-5.0325,0.02470768485097482
-5.03,-0.0136946029645528
-5.0275,0.0936801468134319
-5.025,-0.06021589259216034
-5.0225,-0.1113895778439215
-5.02,0.0001102240012107812
-5.0175,0.1031532341893376
-5.015,0.1035963625983247
-5.0125,-0.1791263027228555
-5.01,0.1368154250737854
-5.0075,-0.02394381497087473
-5.005,-0.06392671888911813
-5.0025,-0.06079515300368265
-5,0.01077223487331243
-4.9975,0.136742912604104
-4.995,-0.02564510623847967
-4.9925,0.00891864996105041
-4.99,-0.1637899394145816
-4.9875,0.01271920274549848
-4.985,-0.003583896948061667
-4.9825,0.06042722405120383
-4.98,0.05816596550920237
-4.9775,-0.05248680477901535
-4.975,-0.002954234556003943
-4.9725,0.1146527216389558
-4.97,0.01977013847550948
-4.9675,-0.04509531685152623
-4.965,-0.07887639494569657
-4.9625,-0.02105779361850032
-4.96,-0.05735436727049881
-4.9575,0.0613931836923093
-4.955,0.162057532033143
-4.9525,-0.1313529069991938
-4.95,-0.01625089992854356
-4.9475,0.1156466019029705
-4.945,-0.09181447171742971
-4.9425,-0.05919292666115189
-4.94,0.0215787459651296
-4.9375,0.1697880877785583
-4.935,-0.2341261632564678
-4.9325,0.02674777248695231
-4.93,0.06285784971852364
-4.9275,0.007818344420189489
-4.925,-0.04760435513650269
-4.9225,0.06733950601147951
-4.92,0.05809207326888967
-4.9175,-0.05698699906135182
-4.915,-0.0688390143440066
-4.9125,0.02851881203310453
-4.91,0.1263857567943807
-4.9075,-0.03494615003094063
-4.905,-0.1622599267721545
-4.9025,-0.01161893394735351
-4.9,0.1005459249080566
-4.8975,0.01786409219362725
-4.895,-0.02305218273284785
-4.8925,0.0531159891797718
-4.89,-0.006030724937574669
-4.8875,-0.04252905793495834
-4.885,-0.001937160308645469
-4.8825,0.03148788660093689
-4.88,0.06222929464044848
-4.8775,-0.1134346063348129
-4.875,-0.06177081597113497
-4.8725,0.07101011464447578
-4.87,0.1088035903542307
-4.8675,-0.1167209596182743
-4.865,-0.05275034249530198
-4.8625,-0.03209085354495845
-4.86,0.1425575843269727
-4.8575,0.09619354809471779
-4.855,-0.05251657893977659
-4.8525,-0.01140529871918813
-4.85,-0.03152330486100748
-4.8475,-0.1237346556767804
-4.845,0.002297751347525692
-4.8425,0.0008825455048245007
-4.84,0.01707762695232361
-4.8375,0.03281823145108419
-4.835,0.06990389751322364
-4.8325,0.06559878625022939
-4.83,-0.0613965694738797
-4.8275,0.001052989980890043
-4.825,-0.04020829504382097
-4.8225,0.03191258199555359
-4.82,0.04986953793022249
-4.8175,-0.2251714609408381
-4.815,0.1347033493974382
-4.8125,0.08084995006064626
-4.81,-0.03459450726028873
-4.8075,-0.06807173368093014
-4.805,-0.02712993529053667
-4.8025,-0.07093365914224874
-4.8,0.1122811384377944
-4.7975,0.06783763888923684
-4.795,0.007392986948484478
-4.7925,-0.01564237135708289
-4.79,0.004052242103191548
-4.7875,-0.01010329193067281
-4.785,-0.006623354303059617
-4.7825,-0.07092268309207289
-4.78,0.1075823937846416
-4.7775,-0.1896416875130485
-4.775,-0.002013293243778189
-4.7725,0.1017179912072902
-4.77,0.1178360797829859
-4.7675,-0.06740658921129264
-4.765,0.09492812913772493
-4.7625,-0.1836063677203915
-4.76,-0.04526590154193759
-4.7575,0.07593873995416847
-4.755,0.03352351389929712
-4.7525,0.02968413294839118
-4.75,0.004053360162211086
-4.7475,0.0300762120234691
-4.745,-0.01127080784167573
-4.7425,-0.1312261927598503
-4.74,0.03951824667031127
-4.7375,0.07674735647487074
-4.735,0.04217388052531672
-4.7325,-0.1049008415866862
-4.73,-0.03428136322953228
-4.7275,0.0005197339616739113
-4.725,0.06295154751462255
-4.7225,-0.006741411198633852
-4.72,0.01944183591054049
-4.7175,0.04822071805086413
-4.715,-0.0737186862365337
-4.7125,-0.02603606394784343
-4.71,-0.01698561327166717
-4.7075,0.06496325500636052
-4.705,-0.005388941511936434
-4.7025,-0.02248229307081172
-4.7,0.02738135316782896
-4.6975,-0.0007134593455674357
-4.695,-0.007673339621085642
-4.6925,-0.0197552783319908
-4.69,-0.005435505040044991
-4.6875,0.02697765775992514
-4.685,-0.01102919774975894
-4.6825,0.1039421934064075
-4.68,-0.1449923077104849
-4.6775,0.1029625325376477
-4.675,0.002933696294655694
-4.6725,-0.1761524423735389
-4.67,-0.0267113685918931
-4.6675,0.0930739136228447
-4.665,0.06263177245645805
-4.6625,0.05141593774456557
-4.66,-0.01280409294168661
-4.6575,0.0005596158170321773
-4.655,-0.02922730254054644
-4.6525,-0.017110133585328
-4.65,-0.008515588490068324
-4.6475,-0.05335961252088081
-4.645,0.01207075700982055
-4.6425,0.04617842854116861
-4.64,-0.0008883921584726506
-4.6375,0.02629828679332208
-4.635,-0.02169115522682277
-4.6325,0.002679797481910139
-4.63,0.009756922371161323
-4.6275,-0.0002000872910629951
-4.625,0.01994982269241439
-4.6225,0.02738130506935978
-4.62,-0.1913515672170542
-4.6175,0.04011978513630419
-4.615,0.03781613121206995
-4.6125,0.04141803492222747
-4.61,0.05408756304178805
-4.6075,0.01592389159893338
-4.605,0.01824834152931284
-4.6025,-0.0604020192716877
-4.6,-0.07153608650223688
-4.5975,-0.02604652249654784
-4.595,0.07371365607231277
-4.5925,0.04203069720201796
-4.59,0.05971081714513918
-4.5875,-0.1980013787518405
-4.585,-0.0003169955853566963
-4.5825,0.08909236753651888
-4.58,0.02456260219136819
-4.5775,-0.01291891448467954
-4.575,0.06681619150900277
-4.5725,-0.009250410532749642
-4.57,-0.07139568096815395
-4.5675,-0.06422902336910088
-4.565,0.07381742557130562
-4.5625,0.03784456012815034
-4.56,0.01320081896307375
-4.5575,-0.1490193835342088
-4.555,0.03372336280467057
-4.5525,0.06020347897627013
-4.55,0.07316290568187335
-4.5475,-0.006376461946618267
-4.545,-0.09419244190365214
-4.5425,-0.01650767579015306
-4.54,0.0796269153438745
-4.5375,-0.006608260620161332
-4.535,0.07992837025984395
-4.5325,-0.02025602137305082
-4.53,-0.1286712770933274
-4.5275,-0.1634684188476521
-4.525,0.0673913803544848
-4.5225,0.1052680715321645
-4.52,0.1129332745754822
-4.5175,-0.01792507379185344
-4.515,0.01350154224595863
-4.5125,-0.008939241601163805
-4.51,-0.09160657075151867
-4.5075,0.08460053187029738
-4.505,-0.01090906937578489
-4.5025,-0.09164619711598958
-4.5,-0.008343315992555866
-4.4975,0.04182048482737438
-4.495,-0.04497395840692739
-4.4925,0.07974976126196398
-4.49,-0.05016453008876155
-4.4875,0.07497155534444493
-4.485,0.019359481523362
-4.4825,-0.0471404706707791
-4.48,-0.1189435112270697
-4.4775,0.04604355196404817
-4.475,0.04478230175407674
-4.4725,0.04175834650520047
-4.47,-0.0180859677379294
-4.4675,-0.06286757309404092
-4.465,0.1445149037465949
-4.4625,-0.07032262490223637
-4.46,0.03012507241836948
-4.4575,-0.05447863554454367
-4.455,-0.01462309245739693
-4.4525,-0.07430529746627838
-4.45,0.007117414656903638
-4.4475,0.05912243768321735
-4.445,0.06400086737243911
-4.4425,0.07678249559663597
-4.44,-0.1424478874964188
-4.4375,0.02935730659126328
-4.435,-0.07368941837662001
-4.4325,0.05470452469139418
-4.43,0.1675757229563948
-4.4275,-0.1664494341698282
-4.425,-0.1149726407473265
-4.4225,0.03214326042517768
-4.42,0.1345486248603381
-4.4175,0.02895544495266068
-4.415,0.02923146219746347
-4.4125,-0.1734711902251437
-4.41,0.02446433683857947
-4.4075,0.01922234136631057
-4.405,0.02060038841097224
-4.4025,0.02789982349514674
-4.4,-0.05286134708031289
-4.3975,0.09609158656023574
-4.395,0.04017057690928895
-4.3925,-0.1281226892073162
-4.39,-0.08953030762971281
-4.3875,0.1879524540594162
-4.385,-0.05875754396444675
-4.3825,-0.06913997919413924
-4.38,0.05008958151879683
-4.3775,0.0681451360530371
-4.375,0.04117202116773237
-4.3725,-0.1157366009800894
-4.37,-0.1228415209019146
-4.3675,0.1609233810178784
-4.365,0.04381681062674985
-4.3625,-0.08888186661351308
-4.36,-0.06225485262161597
-4.3575,0.03047300359028573
-4.355,0.09413695533947257
-4.3525,0.03181395626445701
-4.35,-0.1225912388281234
-4.3475,-0.01773664528441801
-4.345,0.1942561986006524
-4.3425,-0.106515613723477
-4.34,-0.02908417239549863
-4.3375,-0.08122584510661471
-4.335,0.02667735998152428
-4.3325,0.02458329559508511
-4.33,0.09934226096480325
-4.3275,0.002535423074071977
-4.325,-0.03922940328310168
-4.3225,-0.0186930709259324
-4.32,-0.04494977496606731
-4.3175,0.01063351790006605
-4.315,0.07604305170185777
-4.3125,0.0979196470538817
-4.31,-0.2371082206453391
-4.3075,0.05214527677314187
-4.305,0.009118806659697436
-4.3025,-0.02792237176711471
-4.3,0.01954291575215158
-4.2975,0.04899703515897162
-4.295,0.001404730088004357
-4.2925,0.01688855752485498
-4.29,0.1196497085140268
-4.2875,-0.04592594184475379
-4.285,-0.2001365006686881
-4.2825,-0.05004868174653078
-4.28,0.10883604619937
-4.2775,0.08314512392577432
-4.275,-0.04719893644547506
-4.2725,-0.01054803866598324
-4.27,0.005788192589912104
-4.2675,-0.020796903129718
-4.265,0.1039227015386696
-4.2625,-0.01842160967338735
-4.26,-0.0583882627434336
-4.2575,-0.008506199035785077
-4.255,-0.005568439299233031
-4.2525,0.03798767120297467
-4.25,-0.07715617094772505
-4.2475,0.0251684765619368
-4.245,0.09622933942785786
-4.2425,0.0164169443676299
-4.24,-0.1548166144072032
-4.2375,-0.03022807930985277
-4.235,0.1187957627024237
-4.2325,0.2560430890836493
-4.23,-0.3149223158130703
-4.2275,-0.1419722584698826
-4.225,0.1327303621045821
-4.2225,-0.001904118271458033
-4.22,0.03263938490563582
-4.2175,0.08882113192100347
-4.215,0.01757428668364923
-4.2125,-0.1363710209418865
-4.21,0.02505262463445965
-4.2075,0.09459405628127303
-4.205,-0.07864929508570993
-4.2025,0.02402985680827628
-4.2,-0.01704745676110974
-4.1975,-0.04534678887304083
-4.195,0.07563012626710841
-4.1925,-0.01352203594469402
-4.19,-0.0868667223747935
-4.1875,0.0225510131436743
-4.185,0.05872260930692795
-4.1825,0.0372150325020071
-4.18,-0.03977481858312752
-4.1775,-0.0520315034447873
-4.175,0.04500699385258363
-4.1725,0.1512134982232657
-4.17,-0.1042181864926001
-4.1675,-0.1061336674637406
-4.165,0.03674444731611128
-4.1625,0.03174507389227458
-4.16,-0.02059441883391458
-4.1575,-0.06402123995338636
-4.155,0.1293783284026756
-4.1525,-0.0353009868387878
-4.15,-0.02324734845278242
-4.1475,-0.09946104368086248
-4.145,0.09047036881949477
-4.1425,0.01212826177892882
-4.14,-0.02510145681262851
-4.1375,0.02332578219369079
-4.135,0.05800255292830217
-4.1325,-0.02326225216534879
-4.13,-0.002990233558615578
-4.1275,0.04108424321615645
-4.125,-0.11762477723585
-4.1225,-0.009765013971140444
-4.12,0.0321281496387764
-4.1175,0.06331579095235325
-4.115,0.004330202482023163
-4.1125,0.01912666879769329
-4.11,0.1144053605234739
-4.1075,-0.2685126680176662
-4.105,-0.08077432305157817
-4.1025,0.1132918596681876
-4.1,0.05080643707361853
-4.0975,-0.02601256337569654
-4.095,-0.0350810568998941
-4.0925,0.2414003697408632
-4.09,0.09469062328005659
-4.0875,-0.2378579608379797
-4.085,-0.1346114378540794
-4.0825,-0.06463836594980438
-4.08,0.07749194046047941
-4.0775,0.02868676937603541
-4.075,-0.007290237371958871
-4.0725,0.2557479968175104
-4.07,0.04366680469737488
-4.0675,-0.2375853701095029
-4.065,-0.09820859111312387
-4.0625,0.08229270675702346
-4.06,-0.05979221684160348
-4.0575,0.01401242016616406
-4.055,0.05015324756091692
-4.0525,0.1468093956860643
-4.05,-0.06543071759765608
-4.0475,-0.07234932495708966
-4.045,0.04290887045701537
-4.0425,-0.0119803121564318
-4.04,-0.05749461379095712
-4.0375,0.07524660303733877
-4.035,-0.0629952007238934
-4.0325,0.01759418728844692
-4.03,-0.004942321370390004
-4.0275,-0.01052439437055684
-4.025,0.01724215456697442
-4.0225,0.06016643712214878
-4.02,-0.0149413786602293
-4.0175,-0.02138374179532461
-4.015,-0.1108698566037566
-4.0125,-0.00383809228680178
-4.01,0.1035103535272598
-4.0075,0.05421474680860706
-4.005,0.03149574046576709
-4.0025,-0.08194021041344035
-4,0.2227068160034384
-3.9975,-0.1880034014440947
-3.995,-0.3046477626473088
-3.9925,0.1007875409286414
-3.99,0.1200210342423725
-3.9875,0.05829672905426361
-3.985,0.1212773729992045
-3.9825,-0.0348033146380147
-3.98,-0.08599727485743744
-3.9775,-0.1375237921541094
-3.975,0.03722529512646735
-3.9725,0.05754683461557609
-3.97,0.08650235877102004
-3.9675,-0.06308667961394344
-3.965,0.02226175767920471
-3.9625,-0.03666057923695782
-3.96,0.06433718969900135
-3.9575,-0.01217948369586243
-3.955,-0.001032146900034835
-3.9525,-0.02030406378756094
-3.95,-0.08684469469953091
-3.9475,0.005694550772763562
-3.945,0.0640871818493865
-3.9425,-0.02440713600352683
-3.94,0.1151088892964199
-3.9375,-0.05557974229311153
-3.935,-0.06100063700165333
-3.9325,-0.03898537134305365
-3.93,0.0324857676120547
-3.9275,0.02661152702178737
-3.925,0.01851386712908064
-3.9225,0.04260747668990268
-3.92,-0.01916142536394422
-3.9175,-0.01525658512608453
-3.915,0.01964673769068275
-3.9125,-0.1082302591384948
-3.91,0.08278968264725269
-3.9075,0.01844208334602623
-3.905,0.02381374641504488
-3.9025,-0.06875290661434252
-3.9,-0.06637947539275238
-3.8975,0.01987461861548613
-3.895,0.06638167020617378
-3.8925,0.007052383457368537
-3.89,-0.009098870443768605
-3.8875,0.06349589900805795
-3.885,-0.02215989643027904
-3.8825,-0.02291994417440625
-3.88,-0.07376265110989307
-3.8775,0.09119913667348349
-3.875,-0.004256516249411028
-3.8725,-0.1088379850464965
-3.87,-0.05866591715308289
-3.8675,0.04263515790066058
-3.865,0.07463715623899926
-3.8625,0.02213392206666252
-3.86,0.1575979955432456
-3.8575,-0.07781586329143594
-3.855,-0.04509367178436651
-3.8525,-0.008070364285984602
-3.85,0.03931892186032757
-3.8475,-0.1728830458687811
-3.845,-0.03150449248192904
-3.8425,0.07045364206036724
-3.84,0.1577303211272718
-3.8375,-0.11506201909888
-3.835,-0.005828601955391505
-3.8325,0.01584727555635786
-3.83,0.02751599211407133
-3.8275,-0.06439745996525259
-3.825,-0.0167256542983617
-3.8225,0.08862764879926725
-3.82,0.07637556258160566
-3.8175,-0.06173024578488401
-3.815,-0.05176184437571425
-3.8125,0.09510838706149274
-3.81,-0.01215730992916599
-3.8075,-0.1835094629492255
-3.805,0.00753207969472995
-3.8025,0.0470067935879215
-3.8,0.1162329275953138
-3.7975,-0.06981889592567464
-3.795,-0.002501362430784331
-3.7925,0.01240892209923627
-3.79,0.02529163556833269
-3.7875,0.006950271183853416
-3.785,0.01726013953407565
-3.7825,-0.04771032812604921
-3.78,-0.0634937127187352
-3.7775,0.01983401697363097
-3.775,0.06538146971979057
-3.7725,-0.01301498693390564
-3.77,-0.006420828294048485
-3.7675,0.0004111480312199025
-3.765,-0.04000077028724476
-3.7625,0.05146009173889819
-3.76,0.04058628963456212
-3.7575,-0.08733637827086778
-3.755,0.008324976838656748
-3.7525,-0.003441256918461335
-3.75,0.0620264483297534
-3.7475,0.01709750147547761
-3.745,-0.164038355546505
-3.7425,0.1990113380081339
-3.74,-0.004357206005589188
-3.7375,-0.1363645806105948
-3.735,-0.1015961492694377
-3.7325,0.08363443555193427
-3.73,0.1105902510924623
-3.7275,0.004088586663735946
-3.725,0.003140717839586374
-3.7225,0.03774761335151987
-3.72,0.06005909349934223
-3.7175,-0.1069350970595966
-3.715,-0.1931378309964474
-3.7125,0.07895494549077506
-3.71,0.07289925876202585
-3.7075,-0.0639099360444324
-3.705,0.06642219718586141
-3.7025,0.04139807961686387
-3.7,-0.05753543944478997
-3.6975,0.006380898424183018
-3.695,0.01668871244936179
-3.6925,-0.009783471408360885
-3.69,0.07452337952805015
-3.6875,-0.05619000225847959
-3.685,-0.09908190891842285
-3.6825,0.02313064624033127
-3.68,0.06546725550245898
-3.6775,0.08590941535173038
-3.675,0.0570473210264945
-3.6725,-0.1003113490983411
-3.67,0.003363650704230735
-3.6675,-0.1101155509467199
-3.665,-0.09430698383613721
-3.6625,-0.001173876836308796
-3.66,0.1047541104001531
-3.6575,0.1204187549401814
-3.655,0.04459090976038787
-3.6525,-0.1086734412985583
-3.65,-0.02588527661988856
-3.6475,0.005440305521790481
-3.645,0.01375759477487571
-3.6425,0.01328378359357108
-3.64,0.01006464037680578
-3.6375,0.02419901229293642
-3.635,-0.04433285323825142
-3.6325,-0.04348445023315441
-3.63,0.1375155046941566
-3.6275,-0.130164311081321
-3.625,-0.02608751138063459
-3.6225,0.07407984669821707
-3.62,-0.0788171313331669
-3.6175,-0.009692557305510189
-3.615,0.05753639289056576
-3.6125,0.01069513535923747
-3.61,0.06107699545720851
-3.6075,0.0285016901500628
-3.605,-0.1593492011313287
-3.6025,0.106067821936923
-3.6,0.02127919247393358
-3.5975,-0.04081093386356555
-3.595,-0.0264320753900195
-3.5925,-0.02620179320758385
-3.59,0.005371744488161427
-3.5875,0.04144210264494221
-3.585,0.1202123344894908
-3.5825,-0.02806279974817251
-3.58,-0.1473331323842423
-3.5775,0.02567694094906451
-3.575,-0.06915158334782648
-3.5725,-0.01634199970659433
-3.57,0.0841947675414427
-3.5675,0.05080397695428474
-3.565,0.009201356190381279
-3.5625,0.015131237082935
-3.56,0.05372742886850946
-3.5575,-0.1415152340288277
-3.555,-0.0492621520004936
-3.5525,0.02837058466566103
-3.55,0.1005824797010594
-3.5475,-0.1549138349041757
-3.545,0.2414522791710895
-3.5425,0.01985638603536427
-3.54,-0.1298092015161825
-3.5375,-0.05457889339870994
-3.535,0.008823731849489633
-3.5325,0.003121284377842945
-3.53,0.02339230543953752
-3.5275,-0.03427323566058326
-3.525,0.01942960104154983
-3.5225,0.008478475189904805
-3.52,-0.01336798877592842
-3.5175,0.01859332529087106
-3.515,0.01773308340930021
-3.5125,0.02540617443974328
-3.51,-0.009601499132539269
-3.5075,0.03563974557500638
-3.505,-0.09928980341422887
-3.5025,-0.01192814256115746
-3.5,-0.04832168228762662
-3.4975,0.04560172351152888
-3.495,0.08674458697084408
-3.4925,0.009169287770763573
-3.49,-0.04791361721171126
-3.4875,0.02406893601406554
-3.485,0.1492381854455197
-3.4825,-0.1990435757229027
-3.48,-0.1183258393692839
-3.4775,0.05473158646048364
-3.475,0.07615834286821913
-3.4725,0.000398061511414873
-3.47,0.04728793849575144
-3.4675,0.01255429845120671
-3.465,-0.04007571847127821
-3.4625,-0.007945571499801728
-3.46,0.003740982149883361
-3.4575,0.1295087289814929
-3.455,-0.07690335757174352
-3.4525,-0.1071690210805176
-3.45,-0.02862392101512035
-3.4475,0.01086254951157903
-3.445,-0.03125179966063867
-3.4425,0.04984559778676666
-3.44,0.05741214682997272
-3.4375,0.02688132174904884
-3.435,0.02959734517461021
-3.4325,0.0146913360077792
-3.43,-0.04492263984031799
-3.4275,-0.07064135727236744
-3.425,-0.02398345476267052
-3.4225,0.130647776515066
-3.42,-0.01130068968096697
-3.4175,0.1010260324571271
-3.415,-0.1986856098696005
-3.4125,-0.1401934406832867
-3.41,0.08290327480933145
-3.4075,0.003686364631836882
-3.405,0.07365707804202459
-3.4025,0.06183646887394558
-3.4,0.02098901846656517
-3.3975,-0.01358212404706179
-3.395,0.02697985966886196
-3.3925,0.01082632410883652
-3.39,-0.02855620662594486
-3.3875,-0.1070834493429144
-3.385,-0.04678539421246318
-3.3825,-0.02117381370314375
-3.38,0.0870689314030821
-3.3775,0.02748072699230293
-3.375,0.009644704883187813
-3.3725,0.006312174706471051
-3.37,-0.01852806647568456
-3.3675,-0.006813882691842182
-3.365,0.03590121034495829
-3.3625,0.08077439443743002
-3.36,-0.06339828211063207
-3.3575,-0.06968579955387472
-3.355,-0.004165394742527028
-3.3525,-0.001962912206983212
-3.35,-0.002588620485725873
-3.3475,0.03011023961972007
-3.345,0.02074534355961182
-3.3425,0.03291292519540961
-3.34,0.06451773538247307
-3.3375,-0.09686701841364846
-3.335,0.0764196154903885
-3.3325,-0.06577661128964875
-3.33,-0.2703613150180241
-3.3275,0.1115087565823814
-3.325,0.1038152392577582
-3.3225,0.02668541632554016
-3.32,0.09049657113384535
-3.3175,-0.1213325174473512
-3.315,3.859538762242132e-05
-3.3125,0.04898629665616891
-3.31,0.02490751803858791
-3.3075,0.009280701681418934
-3.305,-0.05909272920852809
-3.3025,-0.04604812247674334
-3.3,0.1081218996301141
-3.2975,0.02797744974351478
-3.295,-0.03518044891135876
-3.2925,-0.05312643201834724
-3.29,-0.04261413219675887
-3.2875,-0.07137616099799723
-3.285,0.1467954189825851
-3.2825,0.03885892859268912
-3.28,-0.03143316331408507
-3.2775,-0.04471488079893407
-3.275,0.04061888398728585
-3.2725,-0.05737375786446401
-3.27,0.06208034976297828
-3.2675,-0.1222302971767267
-3.265,-0.00196793578492385
-3.2625,0.1388304438372936
-3.26,0.03585704524194771
-3.2575,-0.09965426311027914
-3.255,-0.01447062570352593
-3.2525,0.01319574888281383
-3.25,-0.003999726974923212
-3.2475,0.02797981667978988
-3.245,0.08725301912562194
-3.2425,0.07080989575371296
-3.24,-0.2366341187675342
-3.2375,-0.1169916098825089
-3.235,0.1301862777754969
-3.2325,0.0575427359278393
-3.23,0.03212072601823206
-3.2275,-0.05056378774023619
-3.225,0.05644853232873871
-3.2225,0.1104770290201818
-3.22,-0.1039100636715916
-3.2175,-0.1581837981375931
-3.215,0.03009708636079608
-3.2125,0.05558652957885168
-3.21,0.02323721434690911
-3.2075,0.06079313122430274
-3.205,-0.03973965331097858
-3.2025,-0.01732903508249722
-3.2,-0.009470721923990294
-3.1975,0.02874377311714431
-3.195,0.07703834500519995
-3.1925,-0.04752337869925537
-3.19,-0.1364043741823647
-3.1875,-0.02557835610101779
-3.185,0.04686982760652374
-3.1825,0.09099122836503375
-3.18,0.05953190682173989
-3.1775,-0.04224907818729168
-3.175,-0.03415957357415197
-3.1725,0.01802644963667744
-3.17,-0.05029603463326816
-3.1675,0.03162898817951831
-3.165,-0.008701843696982641
-3.1625,0.02378150749073506
-3.16,-0.004448041476189053
-3.1575,-0.005741520814682944
-3.155,-0.01881551540773489
-3.1525,0.005438742456383729
-3.15,0.05392821449848344
-3.1475,-0.05941704111621612
-3.145,0.02169453596176198
-3.1425,-0.1213495007430414
-3.14,0.05697953948013659
-3.1375,0.03675693995826179
-3.135,0.01778802953015219
-3.1325,-0.001860900316442885
-3.13,0.0072012213427406
-3.1275,0.003156808651198123
-3.125,0.01971376683458288
-3.1225,0.1387407873944783
-3.12,-0.07990285305911221
-3.1175,-0.1747409120269812
-3.115,-0.1785152738834938
-3.1125,0.3045957909464094
-3.11,-0.03395093314877375
-3.1075,-0.02296660784532052
-3.105,0.01943392851178673
-3.1025,0.1089089463725332
-3.1,-0.05477445247755399
-3.0975,-0.1155884734709631
-3.095,-0.04181172452873897
-3.0925,0.1033042863701369
-3.09,0.01351749166052313
-3.0875,-0.008931744626370551
-3.085,0.02534905227551944
-3.0825,0.03750873400631714
-3.08,-0.05176416939545607
-3.0775,-0.08469741252804862
-3.075,-0.01369078066172929
-3.0725,0.05997979353833745
-3.07,0.02283727279420851
-3.0675,-0.002714945283975723
-3.065,0.01534510905404515
-3.0625,0.01111962127488938
-3.06,0.02663298335884752
-3.0575,0.06180552353326036
-3.055,0.0578988813805595
-3.0525,-0.3445195084667346
-3.05,-0.07193217972494755
-3.0475,0.1405846237565435
-3.045,0.09485526095027176
-3.0425,0.0553274605533181
-3.04,0.00140690353075041
-3.0375,-0.02774821559831171
-3.035,-0.00961876421083081
-3.0325,0.1065024484989291
-3.03,-0.04523265550047074
-3.0275,-0.1780889718432505
-3.025,0.03429985302632398
-3.0225,0.05980469182267827
-3.02,-0.04223267511903141
-3.0175,0.07633953226622876
-3.015,-0.001132635332616721
-3.0125,-0.03714653970444687
-3.01,-0.0006216040127485378
-3.0075,0.03943976832121973
-3.005,0.02888563541542578
-3.0025,-0.0752231801785995
-3,0.05766857196878606
-2.9975,0.1177206568800353
-2.995,-0.1974297848078124
-2.9925,-0.1722179545712639
-2.99,0.05654453325619926
-2.9875,0.2255441193226841
-2.985,0.01942926730827703
-2.9825,-0.04410468007804586
-2.98,-0.003403599099908561
-2.9775,-0.02465676237584411
-2.975,0.003405122809130743
-2.9725,-0.01834077496247265
-2.97,-0.02905905951724908
-2.9675,0.07227954462777594
-2.965,-0.06463891819393645
-2.9625,-0.01061014723750229
-2.96,-0.001215640823345734
-2.9575,0.0364135429594864
-2.955,0.01347189091276076
-2.9525,0.01332217704655307
-2.95,-0.03445904179772997
-2.9475,-0.007158945526771869
-2.945,0.004736828695076029
-2.9425,0.0515073545875835
-2.94,0.01295971234156938
-2.9375,-0.09851368125027868
-2.935,0.06866236030328945
-2.9325,0.01464246095067841
-2.93,-0.06224325944227244
-2.9275,-0.0465528559099959
-2.925,-0.05078634261922733
-2.9225,0.06332532667605142
-2.92,0.1042761137276352
-2.9175,-0.07377279503805534
-2.915,0.110457473595407
-2.9125,-0.05201565548731195
-2.91,0.003450240817308652
-2.9075,0.05461441444051691
-2.905,-0.151670348753194
-2.9025,0.01954591102480344
-2.9,-0.003313912235215422
-2.8975,0.02225682025658761
-2.895,0.01570926671653756
-2.8925,0.01377120068142518
-2.89,-0.007137847886240415
-2.8875,0.05247299294805877
-2.885,-0.04383823623062962
-2.8825,0.05387892010168666
-2.88,0.04627237222282192
-2.8775,-0.1699655592727768
-2.875,-0.043830280667977
-2.8725,0.05148097991195594
-2.87,0.05676752481651032
-2.8675,-0.04657031788179954
-2.865,0.06050374831243693
-2.8625,-0.02737547884382633
-2.86,0.08586114437047961
-2.8575,-0.1161882774149597
-2.855,0.06810036033314397
-2.8525,-0.007639507950890228
-2.85,-0.09156930395684462
-2.8475,0.007650797951433269
-2.845,0.1121615336192933
-2.8425,-0.02864226741605402
-2.84,0.08658544909179407
-2.8375,-0.1682439841005892
-2.835,-0.07478276252946815
-2.8325,0.1025293346492027
-2.83,0.09820239698789626
-2.8275,-0.005383357797633241
-2.825,-0.03993604475830495
-2.8225,0.006671068982578974
-2.82,0.03661303125983742
-2.8175,0.06206548357720849
-2.815,-0.1599525449291638
-2.8125,-0.08218297112931308
-2.81,0.01198404512813882
-2.8075,0.08334810430115769
-2.805,0.02780511611130068
-2.8025,-0.02495856081833384
-2.8,0.02674062381163183
-2.7975,0.04203655827323389
-2.795,-0.01393620854339764
-2.7925,-0.005887029277904639
-2.79,0.02461226669644663
-2.7875,-0.1470741452215469
-2.785,0.05514430941934387
-2.7825,0.04785441800305085
-2.78,0.03098900954646146
-2.7775,0.01113881169906695
-2.775,-0.1104024666794214
-2.7725,-0.04613479435488416
-2.77,0.1464077706566449
-2.7675,0.125769192414679
-2.765,-0.1683868690703804
-2.7625,-0.1581510463149523
-2.76,0.1005282160780752
-2.7575,0.07094430165109952
-2.755,0.03763039173267599
-2.7525,-0.02006633733641747
-2.75,-0.0208300180664712
-2.7475,-0.01720281830389993
-2.745,0.03537948120772987
-2.7425,0.2496073358463891
-2.74,-0.3761155018993736
-2.7375,-0.1401067778863692
-2.735,0.1570133167843748
-2.7325,0.1309428133087684
-2.73,-0.03945827315672076
-2.7275,-0.06809061699367014
-2.725,0.04464583942005151
-2.7225,0.07329510949877359
-2.72,0.01169266499931706
-2.7175,-0.09208581174778044
-2.715,0.115547209345636
-2.7125,-0.0177218934429027
-2.71,-0.1232699865669057
-2.7075,-0.006117492933694436
-2.705,-0.01358561466390174
-2.7025,-0.01927521212264965
-2.7,0.03313724246683026
-2.6975,0.06531080482161492
-2.695,0.05478273785652891
-2.6925,-0.002017118050008903
-2.69,-0.1201050688506603
-2.6875,0.02140157130064696
-2.685,0.1176263365063402
-2.6825,-0.05146436721667508
-2.68,-0.0409483010534515
-2.6775,0.159295252584332
-2.675,-0.2019122139100126
-2.6725,-0.05633688435561817
-2.67,0.003556977241666738
-2.6675,0.08805196647912926
-2.665,-0.02023830207460837
-2.6625,0.09191313586427503
-2.66,-0.004413328848469156
-2.6575,-0.01353429806330811
-2.655,0.007848757240538465
-2.6525,0.05231355842252918
-2.65,-0.168064392891365
-2.6475,-0.06106304473387527
-2.645,0.05373795822197488
-2.6425,0.06463967906248357
-2.64,0.03239805100778316
-2.6375,-0.01013929047765532
-2.635,0.07107789792953761
-2.6325,-0.04018192089579445
-2.63,-0.04031217073860769
-2.6275,-0.1032907642892964
-2.625,0.1903639127714095
-2.6225,-0.05189718000084972
-2.62,-0.103878032034578
-2.6175,0.01930431127266228
-2.615,0.03368838367763768
-2.6125,0.02745337632666779
-2.61,-0.008736944059729815
-2.6075,0.04002532333227436
-2.605,-0.01676516721331664
-2.6025,-0.02914812567644143
-2.6,0.2375322234839803
-2.5975,-0.2235197451551937
-2.595,-0.05813253598987501
-2.5925,-0.2035768712722
-2.59,0.05709827162343465
-2.5875,0.1450824980926041
-2.585,0.1028672956059247
-2.5825,0.03799121356619512
-2.58,-0.0154821110710338
-2.5775,0.0003832301472935962
-2.575,-0.06252387220821812
-2.5725,-0.1143631000215413
-2.57,0.06186910764524238
-2.5675,0.07093457914314805
-2.565,0.01861108439199063
-2.5625,-0.02523606728590271
-2.56,0.0295436654446803
-2.5575,-0.01476835922847381
-2.555,-0.07055317960467304
-2.5525,-0.1381470140739003
-2.55,0.1229263471176808
-2.5475,0.002462524453041232
-2.545,0.01238065784004559
-2.5425,0.0278632268545912
-2.54,0.1561081597290284
-2.5375,-0.03647514774034583
-2.535,-0.1076894925589108
-2.5325,-0.08724581066448402
-2.53,0.2151917432541248
-2.5275,-0.1933201465632799
-2.525,-0.1306613898316198
-2.5225,0.06671091651174155
-2.52,0.09794371577673132
-2.5175,0.08286385276982264
-2.515,-0.0225690043936346
-2.5125,-0.01487660128521268
-2.51,-0.05115790722501472
-2.5075,0.01626688226804366
-2.505,0.1621016748452312
-2.5025,-0.1226484903520933
-2.5,-0.008059011482631316
-2.4975,-0.0432669036144165
-2.495,-0.008336014441487917
-2.4925,0.004436597395285835
-2.49,-0.09936016554767813
-2.4875,0.06645245752291956
-2.485,0.08301342883055884
-2.4825,0.03910351991326405
-2.48,-0.06522918162802629
-2.4775,0.05730574059456672
-2.475,-0.01353879806991039
-2.4725,-0.03399284878731382
-2.47,-0.04880017272910293
-2.4675,0.01848255609916109
-2.465,0.06771518961809002
-2.4625,-0.06565153236159313
-2.46,0.01547381091940648
-2.4575,0.002449748589859885
-2.455,-0.03049193415625318
-2.4525,0.0299754985720061
-2.45,0.004402204758483027
-2.4475,-0.03348503671138239
-2.445,-0.02665809488538102
-2.4425,0.06470624487757304
-2.44,0.0805238344624901
-2.4375,0.07561419113483053
-2.435,-0.1533098992496656
-2.4325,-0.101700800808459
-2.43,0.07642560454112914
-2.4275,0.05492060134607657
-2.425,0.005040097771233446
-2.4225,-0.1538996629057102
-2.42,0.04034816777835736
-2.4175,0.08083476893463752
-2.415,-0.05844437756327171
-2.4125,0.0008841163352201743
-2.41,0.02882074815571793
-2.4075,0.02900419052462322
-2.405,0.06452004553165357
-2.4025,-0.03176890812739937
-2.4,0.04423083538209163
-2.3975,0.1054517181405847
-2.395,-0.2215292778396941
-2.3925,-0.212113868486044
-2.39,0.06523928165899663
-2.3875,0.1385921095130809
-2.385,0.09403442855791526
-2.3825,0.01694193134679729
-2.38,0.05905338735273424
-2.3775,-0.1456031730627352
-2.375,-0.1101789019843203
-2.3725,0.1232771839979099
-2.37,0.01048206479259107
-2.3675,-0.001439732878499482
-2.365,0.001527887297135835
-2.3625,-0.004458885152220714
-2.36,0.01867760125398643
-2.3575,0.02972787650469399
-2.355,-0.1036577637052463
-2.3525,0.02845300847316106
-2.35,0.05074617143382508
-2.3475,0.05537108528237279
-2.345,-0.0731591658211443
-2.3425,0.052912494101294
-2.34,-0.1702671462241052
-2.3375,0.1003959540775035
-2.335,-0.1420379665684501
-2.3325,0.006987592758246848
-2.33,0.1538763535838489
-2.3275,0.03004581662216145
-2.325,0.03019620029496202
-2.3225,-0.004936795804461937
-2.32,-0.08063931054232347
-2.3175,-0.04035892811154015
-2.315,0.08664497292165829
-2.3125,0.1291655842885714
-2.31,-0.2367004505276156
-2.3075,-0.05782798538087527
-2.305,0.1051838955887022
-2.3025,0.01212262175050147
-2.3,0.001885227144398978
-2.2975,0.02538017758358187
-2.295,-0.008596258495266428
-2.2925,-0.02932329356759809
-2.29,0.1283224028734105
-2.2875,-0.1095290917800716
-2.285,-0.06310822542793888
-2.2825,0.05781518461475887
-2.28,0.013878167261718
-2.2775,0.01932994164993034
-2.275,-0.03105672648294775
-2.2725,0.05145991854299908
-2.27,0.08863919496896518
-2.2675,-0.0462844749619916
-2.265,-0.08168955589533757
-2.2625,-0.1976812710731591
-2.26,0.04711826250854285
-2.2575,0.1124437149644038
-2.255,0.0158816728182524
-2.2525,-0.001243513359709712
-2.25,0.008418751585003425
-2.2475,0.03599542186965146
-2.245,0.03325699268925981
-2.2425,-0.004034254809875752
-2.24,0.04252452248925691
-2.2375,-0.05850514320120747
-2.235,-0.1458856436586465
-2.2325,0.06057986848141066
-2.23,0.02281286871862079
-2.2275,0.001314889398536598
-2.225,0.05742842074053259
-2.2225,-0.02709875503462066
-2.22,-0.02980672001248546
-2.2175,0.04047102587033031
-2.215,0.02895411624020857
-2.2125,0.02444003074214078
-2.21,-0.09505722530947083
-2.2075,-0.03397446770373391
-2.205,-0.06201228024065388
-2.2025,0.03153714293097089
-2.2,0.06528930174448641
-2.1975,0.1339738899360121
-2.195,0.004606295089766422
-2.1925,-0.07646448504972223
-2.19,0.01568338941831621
-2.1875,-0.01075981353034679
-2.185,-0.1897398358676666
-2.1825,0.01182436575848659
-2.18,0.1934750362102296
-2.1775,-0.09371499677915854
-2.175,-0.02951385167904923
-2.1725,0.05232038858130204
-2.17,0.001752367343414739
-2.1675,0.01823496262166276
-2.165,-0.004656375048452125
-2.1625,0.02780741904930591
-2.16,0.07029789158542121
-2.1575,-0.1237385438749365
-2.155,0.02576740533347931
-2.1525,0.03576984769159323
-2.15,-0.02377298182801458
-2.1475,0.1527895292760213
-2.145,-0.2414146173788385
-2.1425,-0.07227362686421054
-2.14,0.07612433095055871
-2.1375,0.04695393392280679
-2.135,0.004008778293466153
-2.1325,-0.01825110095680289
-2.13,-0.001532090245446864
-2.1275,0.07481155455277132
-2.125,0.03064146035244742
-2.1225,-0.09386410405636238
-2.12,0.06927854174094776
-2.1175,0.08809873413313533
-2.115,-0.1930782129301438
-2.1125,0.01612631090180975
-2.11,0.005138245219221395
-2.1075,0.0675148358297156
-2.105,0.0194121687882537
-2.1025,-0.07012243174940082
-2.1,-0.06620348353049557
-2.0975,0.0375085258994291
-2.095,0.0467990350812643
-2.0925,0.03799901351543435
-2.09,0.09039845792289303
-2.0875,-0.0635296318565744
-2.085,-0.1750864915634365
-2.0825,0.03259744058337505
-2.08,0.0657045513123308
-2.0775,0.09573614601241628
-2.075,-0.02307727604040955
-2.0725,-0.01964656880356956
-2.07,-0.1128993704769231
-2.0675,-0.00420415995703149
-2.065,0.07194521589243243
-2.0625,0.07986415681093362
-2.06,-0.137937717567165
-2.0575,0.01982371103491228
-2.055,0.06041634514382804
-2.0525,0.06949107899257523
-2.05,-0.03330002299418467
-2.0475,-0.09070863415787823
-2.045,-0.02126006218572432
-2.0425,-0.0940032346103213
-2.04,0.1629995005491814
-2.0375,0.1722532102879454
-2.035,0.01237918620160613
-2.0325,-0.1095395487841317
-2.03,-0.1648149910348411
-2.0275,0.006583726568373632
-2.025,0.05476622521093517
-2.0225,0.1047268013858787
-2.02,-0.1980808902167992
-2.0175,-0.08982247861009213
-2.015,0.1280654660441999
-2.0125,0.08901551882779717
-2.01,0.1092820360570035
-2.0075,-0.09250160175166799
-2.005,-0.01306412263166886
-2.0025,-0.03889682431672521
-2,0.09739490531214912
-1.9975,-0.05894501435821773
-1.995,-0.03700444437066704
-1.9925,0.02516245983121812
-1.99,0.05094324759082357
-1.9875,-0.09857594369042576
-1.985,-0.02060914454439267
-1.9825,0.01768102812773587
-1.98,0.02991885010140556
-1.9775,-0.007455989979801507
-1.975,0.02127328761916723
-1.9725,0.00127763767153204
-1.97,0.06641222926862068
-1.9675,0.04092383076897062
-1.965,-0.1153929615372703
-1.9625,-0.02249240529892944
-1.96,0.03001688156962155
-1.9575,0.008154013473673349
-1.955,-0.03846732795825784
-1.9525,0.02268123758068692
-1.95,0.0235743484014642
-1.9475,0.08696445308850058
-1.945,-0.1491428159149928
-1.9425,0.09195003850795558
-1.94,-0.02732982014533229
-1.9375,-0.04153177621053267
-1.935,-0.1491268993820752
-1.9325,0.0667512324456742
-1.93,0.1083897639005671
-1.9275,0.02465315399869432
-1.925,0.05728561796305891
-1.9225,0.003263000102099445
-1.92,-0.08406470873518151
-1.9175,0.0004598587122032089
-1.915,-0.03746432619300224
-1.9125,0.06234097336406096
-1.91,0.04149366575309751
-1.9075,-0.115625064683832
-1.905,-0.05905055763534163
-1.9025,0.07005208353525466
-1.9,-0.007833840075871307
-1.8975,0.05857371921410869
-1.895,0.03019146979620075
-1.8925,0.004687349584487893
-1.89,-0.04179392609263414
-1.8875,-0.006943196891625137
-1.885,0.04566101231050735
-1.8825,0.09001912870786113
-1.88,-0.153625061424974
-1.8775,-0.1748454731610189
-1.875,0.1351552415615852
-1.8725,0.06237423479555819
-1.87,0.009502377293167446
-1.8675,-0.001200314253366197
-1.865,-0.02343703243847162
-1.8625,0.03146430924343347
-1.86,0.02259214122471715
-1.8575,-0.07637182302215581
-1.855,0.01190190399405979
-1.8525,0.1387473301580165
-1.85,-0.08579846629562168
-1.8475,-0.08248556534020847
-1.845,-0.02577787378096131
-1.8425,0.02658235022987263
-1.84,-0.01737971182294969
-1.8375,0.03642005381973406
-1.835,0.03375109124048872
-1.8325,0.01330151397490399
-1.83,0.01192259401207103
-1.8275,0.01318619351203652
-1.825,0.04886011090637259
-1.8225,-0.05401917455179311
-1.82,-0.05871073372838313
-1.8175,0.01794066552670845
-1.815,-0.0804690050362319
-1.8125,0.05211821611204128
-1.81,0.03981114866375932
-1.8075,-0.06064292067444863
-1.805,0.05288809654518472
-1.8025,0.02116969996984591
-1.8,0.02146752523402436
-1.7975,0.002551040117783
-1.795,-0.03026790633610448
-1.7925,-0.08680092109917295
-1.79,0.006930667745151966
-1.7875,0.09500808923385459
-1.785,0.048988450551525
-1.7825,-0.01737911931477083
-1.78,-0.09863412906498585
-1.7775,-0.05955646661621031
-1.775,0.0298885183943731
-1.7725,0.0565370570137483
-1.77,0.04121437504888529
-1.7675,-0.04165498690846545
-1.765,0.04905800981907783
-1.7625,0.0728959349955605
-1.76,0.1310523355317689
-1.7575,-0.3196488207339798
-1.755,-0.2451095110666327
-1.7525,0.3156299865284659
-1.75,0.01991462550688211
-1.7475,-0.001376945588832201
-1.745,-0.03558004755645183
-1.7425,0.02220107593328216
-1.74,0.0327913909748989
-1.7375,0.08518224792921919
-1.735,-0.1219989322277033
-1.7325,-0.03071477577442131
-1.73,-0.0924871247107053
-1.7275,0.1909712481233917
-1.725,-0.04854648986261364
-1.7225,-0.0009790170977061472
-1.72,-0.08680969600369949
-1.7175,0.0673317543761231
-1.715,0.02011879535286797
-1.7125,-0.0353722463108441
-1.71,0.06413972838242873
-1.7075,-0.02768013448247773
-1.705,0.001430992013405181
-1.7025,0.01057586370282931
-1.7,-0.05855186616267247
-1.6975,0.05184605249234791
-1.695,-0.003900541012075455
-1.6925,-0.02733878490067429
-1.69,-0.06062445164940951
-1.6875,0.02850727198394936
-1.685,0.07472870663035008
-1.6825,-0.03898992281415284
-1.68,0.05528425064638663
-1.6775,-0.02419109667514636
-1.675,-0.03060349810327851
-1.6725,0.05363563499232144
-1.67,-0.05193167558010557
-1.6675,-0.003047177579084993
-1.665,-0.03447033058266778
-1.6625,0.0578270154997327
-1.66,-0.08921974044773449
-1.6575,0.1007448164243401
-1.655,-0.05389742065942803
-1.6525,0.041063026385804
-1.65,-0.04538843368192187
-1.6475,0.05196783406913685
-1.645,-0.05920795162712595
-1.6425,-0.0348685910641155
-1.64,0.1016889982128468
-1.6375,0.05433532004937824
-1.635,-0.05284082448757064
-1.6325,-0.01902259790482309
-1.63,0.0443340453533262
-1.6275,0.01836932845073293
-1.625,-0.01447071835324303
-1.6225,-0.102697160494924
-1.62,-0.1090117108616137
-1.6175,0.1398456944789482
-1.615,-0.02319403996440997
-1.6125,-0.08124138622220116
-1.61,0.09912452101661984
-1.6075,0.06312223810122061
-1.605,0.02859714382451281
-1.6025,-0.000458402342545328
-1.6,-0.09927479612777139
-1.5975,0.08730251737309495
-1.595,-0.01005840593475837
-1.5925,-0.1555378664664979
-1.59,0.07573299956785155
-1.5875,0.05520182348109584
-1.585,-0.02210753743599178
-1.5825,0.005411320481050788
-1.58,-0.004540451164845904
-1.5775,-0.08688904479115703
-1.575,0.1173520708474184
-1.5725,0.04391407732403252
-1.57,-0.1231743751715525
-1.5675,0.07974902793165356
-1.565,-0.1112822108473737
-1.5625,0.01522306374480981
-1.56,0.02380287011840438
-1.5575,0.08116022728141727
-1.555,-0.03773739510800171
-1.5525,0.01604549245568421
-1.55,-0.01056884535334816
-1.5475,-0.05996801493329713
-1.545,0.06606486707254144
-1.5425,-0.02191937482497458
-1.54,0.05938142599133064
-1.5375,0.05478606750834936
-1.535,-0.1276235606136433
-1.5325,-0.05352930843517525
-1.53,-0.05045540957762751
-1.5275,0.185043122821156
-1.525,0.09133640004124469
-1.5225,-0.2179817358151281
-1.52,0.008579294575840528
-1.5175,0.05523200682162683
-1.515,-0.1400391575184916
-1.5125,0.09409905985799984
-1.51,0.1843051461478268
-1.5075,-0.1319117840968026
-1.505,-0.09011314040395065
-1.5025,0.03981560404713044
-1.5,0.1037256033562146
-1.4975,0.09515373878871473
-1.495,-0.1745182703676277
-1.4925,-0.1218301253370177
-1.49,0.05813765034400666
-1.4875,0.08479057406304108
-1.485,0.03291846078299281
-1.4825,-0.05676785487964323
-1.48,0.06096554026350099
-1.4775,0.06364287673862132
-1.475,-0.07089333634599675
-1.4725,-0.1050646429277406
-1.47,0.01813831383881936
-1.4675,0.06275468404550306
-1.465,0.004211596370284046
-1.4625,0.02345474956542768
-1.46,-0.02394562998828295
-1.4575,0.03127218036198494
-1.455,0.01194836277811131
-1.4525,0.02423173859523224
-1.45,-0.2682054785009003
-1.4475,0.04951557107471927
-1.445,0.1403384223219637
-1.4425,0.01799117801526536
-1.44,0.01058501763738082
-1.4375,-0.0002702770512458191
-1.435,-0.03567966920999979
-1.4325,-0.04205475847473437
-1.43,0.08069175172810568
-1.4275,0.1942904330782474
-1.425,-0.3327982989419904
-1.4225,0.1360683106865476
-1.42,0.01169075940616998
-1.4175,-0.1555406892206773
-1.415,0.04934271025944395
-1.4125,-0.01858622150727966
-1.41,0.05321296718398184
-1.4075,0.0351007335262991
-1.405,0.091907258046506
-1.4025,-0.0781525003149897
-1.4,0.1189569358478629
-1.3975,-0.1807605953843344
-1.395,-0.06973039009986737
-1.3925,0.03491333597877636
-1.39,0.05190720415255275
-1.3875,0.07557661515855188
-1.385,0.0411933105795094
-1.3825,-0.01399842168903139
-1.38,-0.1332506432291095
-1.3775,0.0002429686595726528
-1.375,0.004243707682238505
-1.3725,0.08259807528252351
-1.37,-0.01285058601347325
-1.3675,-0.05453337860725511
-1.365,0.02091485499865765
-1.3625,0.02301146910191398
-1.36,0.008344500726506368
-1.3575,-0.01681469115480916
-1.355,-0.003749504931049519
-1.3525,0.05097781243765513
-1.35,-0.07402099588960609
-1.3475,-0.01022864349777202
-1.345,0.1085931047500684
-1.3425,-0.06219617899834508
-1.34,0.1603352613042895
-1.3375,-0.2108605304904907
-1.335,-0.1204073923144317
-1.3325,-0.00283208820733706
-1.33,0.09913226574616779
-1.3275,0.111418298047058
-1.325,0.01884123963124102
-1.3225,0.001888598629857422
-1.32,-0.02789059960285262
-1.3175,-0.02054574028735509
-1.315,-0.05898182571113319
-1.3125,0.0681938528092511
-1.31,-0.01386157549374812
-1.3075,-0.02516793285919768
-1.305,2.987671693660513e-05
-1.3025,0.05519902750510242
-1.3,-0.02026657348038818
-1.2975,-0.02687501443760042
-1.295,0.02819906640222059
-1.2925,-0.0920413684855176
-1.29,-0.02600480043870858
-1.2875,0.0571973117435159
-1.285,0.01155999291904925
-1.2825,0.05137324791666538
-1.28,0.04245539763492637
-1.2775,-0.03025793380120596
-1.275,-0.0873343672688604
-1.2725,0.01493014178817855
-1.27,0.05169346451958842
-1.2675,0.03312818169374581
-1.265,-0.0008826437711091458
-1.2625,-0.07992078050558418
-1.26,-0.03678000746071936
-1.2575,0.130181948101308
-1.255,0.09672090778771518
-1.2525,-0.152089434520814
-1.25,-0.1458615202646654
-1.2475,0.0343836573787653
-1.245,0.07678486176759584
-1.2425,-0.02412511812818415
-1.24,0.009073385206787582
-1.2375,0.07188346025992505
-1.235,0.01583993200116428
-1.2325,-0.01540642438121084
-1.23,-0.01129955744547262
-1.2275,-0.003391416108404407
-1.225,-0.00155737264560603
-1.2225,0.00604146909472346
-1.22,-0.02780786847107304
-1.2175,0.02492951772992756
-1.215,0.04978453639502318
-1.2125,-0.1080964758086165
-1.21,0.04735267359891403
-1.2075,0.01475723269190087
-1.205,-0.07842259696205929
-1.2025,-0.04696010069424985
-1.2,0.01163653445244353
-1.1975,0.04150943495581143
-1.195,0.2096242156825672
-1.1925,-0.07137295523767256
-1.19,-0.1563037122933009
-1.1875,0.08056409813557183
-1.185,-0.04630979233252466
-1.1825,0.0358057108628931
-1.18,0.08534392378252871
-1.1775,-0.06118468939093619
-1.175,-0.1456736056114742
-1.1725,0.106328076422537
-1.17,-0.08935567025017771
-1.1675,0.1184725846431937
-1.165,0.06280418853485649
-1.1625,0.01546862720550367
-1.16,-0.0956609969011072
-1.1575,0.05775698780586614
-1.155,-0.1092911208610574
-1.1525,-0.02235058708473449
-1.15,0.02599020814882842
-1.1475,0.04045973502353138
-1.145,0.01672379714396678
-1.1425,0.02141867502567462
-1.14,0.006113385331620332
-1.1375,0.02839427295000177
-1.135,-0.01992253233397926
-1.1325,-0.09842022403545114
-1.13,-0.007472574120760563
-1.1275,0.02576153090020519
-1.125,0.06505487471783405
-1.1225,-0.0918503664699532
-1.12,0.2106827892791514
-1.1175,-0.09396754408414935
-1.115,-0.06525794957782889
-1.1125,-0.06422621457558608
-1.11,0.007981142564000159
-1.1075,-0.04123889120640709
-1.105,0.09029812909733677
-1.1025,0.1839375505527631
-1.1,-0.1352442476739057
-1.0975,-0.06761527705025104
-1.095,0.1727121834386053
-1.0925,-0.06129331288512282
-1.09,-0.1876573741825709
-1.0875,0.05189656948213035
-1.085,-0.04162223668378373
-1.0825,0.06253962773588273
-1.08,0.04731979710124706
-1.0775,-0.03577316267887624
-1.075,0.05469474022293661
-1.0725,0.04010030891220429
-1.07,0.01532248569169536
-1.0675,0.04360808887876438
-1.065,-0.1149702104057106
-1.0625,-0.2079883444423984
-1.06,0.06125281618718928
-1.0575,0.06541257039465306
-1.055,0.190104339038305
-1.0525,-0.0786062770314611
-1.05,-0.04604215872010861
-1.0475,0.09549413204483319
-1.045,-0.009447319909677442
-1.0425,-0.02372692379123043
-1.04,-0.1021517785524625
-1.0375,-0.03736622927604525
-1.035,0.06474082876264868
-1.0325,-0.009437278434097947
-1.03,-0.01984565757318045
-1.0275,0.01207873638513696
-1.025,0.09242835188226989
-1.0225,0.1298975889045963
-1.02,-0.1550071760342971
-1.0175,-0.1384069468169415
-1.015,0.04238447713091108
-1.0125,0.1732799121571052
-1.01,-0.1867348668229093
-1.0075,0.02986252735415012
-1.005,0.1818362794046466
-1.0025,-0.208516807533129
-1,0.004347760270177123
-0.9975000000000001,0.04596106790115689
-0.995,0.09079123949108765
-0.9925,-0.05092829380800463
-0.99,-0.07827940237156392
-0.9875,0.02823093054349802
-0.985,0.05058307666921359
-0.9825,0.02339483369032406
-0.98,-0.04371214736336054
-0.9775,0.09133415988160935
-0.975,-0.1140884488264743
-0.9725,-0.06358315023779268
-0.97,0.02486426251887244
-0.9675,0.08503888137085794
-0.965,0.02510579022300255
-0.9625,0.07612816511441826
-0.96,-0.06205388172831971
-0.9575,-0.103018922006799
-0.955,0.02987915728703488
-0.9525,-0.0757082312021997
-0.95,0.07814442775416605
-0.9475,0.08402631194000079
-0.945,-0.1148156637996627
-0.9425,0.03173027125053298
-0.9399999999999999,0.02353236007022498
-0.9375,-0.007528141449473743
-0.9350000000000001,0.07436850913141874
-0.9325,-0.1145015107514663
-0.93,-0.003030087232197421
-0.9275,-0.02848264408859474
-0.925,0.1208802823120145
-0.9225,0.01288666859599664
-0.92,-0.04515523195577049
-0.9175,-0.1212935079777176
-0.915,0.03040760340155566
-0.9125,0.05208826055912453
-0.91,0.09213426579806099
-0.9075,-0.04107230389873261
-0.905,0.01136973147937654
-0.9025,-0.09892291974755797
-0.9,0.01564566958546765
-0.8975,-0.0181942693938079
-0.895,0.1796422873313694
-0.8925,-0.09249755772799809
-0.89,-0.05352519916765331
-0.8875,0.04628793223803325
-0.885,0.04659737592275692
-0.8825,-0.05017494227510622
-0.88,-0.0670907159253997
-0.8774999999999999,0.03427574006408316
-0.875,-0.04951621752851542
-0.8725000000000001,-0.07724749048879208
-0.87,0.04999747453678999
-0.8675,0.123921651105647
-0.865,0.05338707975140917
-0.8625,0.006900170434749437
-0.86,-0.02404875431608776
-0.8575,-0.03135274188955496
-0.855,-0.01729052904651282
-0.8525,-0.1036667182286089
-0.85,0.02710589573136446
-0.8475,0.0452262181552975
-0.845,-0.05783227418676996
-0.8425,0.03246863606935121
-0.84,0.08178565873283783
-0.8375,0.01950383132210483
-0.835,-0.0875515565913761
-0.8325,-0.006114749356580216
-0.83,0.01278664110010241
-0.8275,0.03535795085942998
-0.825,-0.01345509840447285
-0.8225,0.1626546220017805
-0.82,-0.105840537812564
-0.8175,0.06076421300642385
-0.8149999999999999,-0.2582923851508904
-0.8125,-0.06601676959152933
-0.8100000000000001,0.01960338640337748
-0.8075,0.1106601625803383
-0.805,0.08929120359592013
-0.8025,0.04942426724719177
-0.8,-0.008683296777666894
-0.7975,-0.02891431450844107
-0.795,-0.005228338680547709
-0.7925,0.01534094997230431
-0.79,0.0204592339471815
-0.7875,-0.1516863530609648
-0.785,0.08195029874300655
-0.7825,0.07253831569576538
-0.78,0.1750383571209822
-0.7775,-0.2270247788833522
-0.775,-0.1809504702316951
-0.7725,0.00714202000113966
-0.77,0.1095790649093229
-0.7675,0.03713843913111883
-0.765,0.05802825388642271
-0.7625,-0.05548588235203844
-0.76,0.009149150029260162
-0.7575,0.08240848009420412
-0.755,-0.04868742989348742
-0.7524999999999999,-0.005326553733269734
-0.75,-0.07385014065541735
-0.7475000000000001,0.01295343046545004
-0.745,0.04746149503076759
-0.7425,0.02341784430025035
-0.74,0.01263735906702642
-0.7375,-0.006523501826602707
-0.735,-0.21662696978988
-0.7325,0.0637408877562169
-0.73,0.03661494417531061
-0.7275,0.2471816804059797
-0.725,-0.07048131938725148
-0.7225,-0.09143060001978692
-0.72,-0.0180527087569946
-0.7175,-0.04820997704433906
-0.715,-0.009665156339635312
-0.7125,0.05586557809930288
-0.71,0.06865089506506716
-0.7075,-0.0198166295094991
-0.705,-0.05007266525689819
-0.7025,0.03382177244593377
-0.7,0.06346339944660682
-0.6975,-0.01523307804063507
-0.695,-0.1014358049131498
-0.6925,-0.09906263742536491
-0.6899999999999999,0.0169664095631927
-0.6875,0.07878703980771734
-0.6850000000000001,0.07287853168245663
-0.6825,0.03181602188824167
-0.68,-0.03895152528059505
-0.6775,-0.1493980239670278
-0.675,0.02735971767240193
-0.6725,0.1032379728222561
-0.67,0.09459309039060421
-0.6675,-0.09833268639545266
-0.665,-0.02004470880390487
-0.6625,0.02663783357557355
-0.66,-0.004353418452034428
-0.6575,0.04230356446958797
-0.655,0.01369168025384833
-0.6525,-0.147916495828257
-0.65,-0.01005555961441635
-0.6475,0.05471006425006318
-0.645,0.02728935414206026
-0.6425,0.02662986795065056
-0.64,0.05428624131919434
-0.6375,-0.06189033064395763
-0.635,0.03412839212226998
-0.6325,-0.03225069405086048
-0.63,-0.08005818907574269
-0.6274999999999999,0.0373394799566469
-0.625,0.07890153452295592
-0.6225000000000001,-0.078402058715468
-0.62,0.1145511550127011
-0.6175,-0.0678773479745213
-0.615,-0.140454908146429
-0.6125,0.1389964060523054
-0.61,-0.009260822963702146
-0.6075,-0.1124770416032446
-0.605,0.09480093336329472
-0.6025,0.05031989948667193
-0.6,0.05199112348298176
-0.5975,-0.1293645842999157
-0.595,-0.024469036973179
-0.5925,0.03493693696613617
-0.59,0.03471590364460363
-0.5875,0.01895838816411909
-0.585,0.01480790798672405
-0.5825,0.01614730290873028
-0.58,0.03580506213052153
-0.5775,-0.04392385478493709
-0.575,-0.05334682814255008
-0.5725,-0.0994476076839937
-0.57,-0.00155263682424212
-0.5675,0.1061105533415588
-0.5649999999999999,-0.05041728095038069
-0.5625,-0.03399607024268615
-0.5600000000000001,0.07619062091675595
-0.5575,0.04488941727842643
-0.555,0.02968387898248898
-0.5525,-0.003988381785499856
-0.55,-0.1008387036925203
-0.5475,0.07637254087853843
-0.545,-0.03897989028645843
-0.5425,0.03348142442154883
-0.54,0.09134143494501143
-0.5375,-0.1525713845658476
-0.535,-0.04458035041414864
-0.5325,0.008826370741259788
-0.53,-0.008714811405961266
-0.5275,0.08453100448003539
-0.525,-0.030099470783176
-0.5225,-0.01402637422803488
-0.52,0.02445260678816078
-0.5175,0.1659478083623423
-0.515,-0.202555388623463
-0.5125,0.0237701330262748
-0.51,0.06441195093135366
-0.5075,-0.0662755132576705
-0.505,0.005354425534424653
-0.5024999999999999,0.08242732316537098
-0.5,-0.0686690965439368
-0.4975,-0.02417173074091435
-0.495,0.05751409118456456
-0.4925,0.02400623634761628
-0.49,-0.1794113930513511
-0.4875,-0.03680811677465808
-0.485,0.1378017756213153
-0.4825,0.05925920535033709
-0.48,-0.004948848769122344
-0.4775,0.01173049058148188
-0.475,-0.0255665835810828
-0.4725,-0.008876663479833385
-0.47,0.002279629962485566
-0.4675,0.06464829621983702
-0.465,-0.02486623938827132
-0.4625,-0.09602796395851358
-0.46,0.06660309543078677
-0.4575,-0.04128845560387237
-0.455,-0.06325459508987888
-0.4525,0.02429813713203791
-0.45,0.06100484059825523
-0.4475,0.02177289394905462
-0.445,0.01295133855044807
-0.4425,-0.01205846441700819
-0.44,0.02896917235974952
-0.4375,-0.03884043700284014
-0.435,-0.06328697815846884
-0.4325,0.02132516585850677
-0.43,0.04120121857079356
-0.4275,0.0189778886332837
-0.425,-9.408257665280163e-05
-0.4225,-0.06382838341149182
-0.42,0.02065787675535812
-0.4175,0.1406949598850007
-0.415,-0.010329256126724
-0.4125,-0.2267515578968536
-0.41,0.01931454091682981
-0.4075,-0.04229800105019705
-0.405,0.1195447356828588
-0.4025,0.02473835823907942
-0.4,-0.08244415212903095
-0.3975,0.05224300005035779
-0.395,0.01081710212674825
-0.3925,0.02468063868858822
-0.39,0.01966342859870499
-0.3875,-0.004573059454783642
-0.385,0.06993849488516422
-0.3825,0.005796411807509018
-0.38,-0.1390546614971279
-0.3775,-0.06711467467968342
-0.375,0.006466005978119583
-0.3725,0.03484706919563452
-0.37,0.02857236256091406
-0.3675,0.05997770651976217
-0.365,0.01087402475000419
-0.3625,-0.01399330803388205
-0.36,-0.01469125822932878
-0.3575,0.02483632929368486
-0.355,0.08997958857069777
-0.3525,-0.1403414771482109
-0.35,-0.1176532952646986
-0.3475,0.02303969679162838
-0.345,0.1013420459818869
-0.3425,0.009188239450536709
-0.34,0.004652149562791158
-0.3375,-0.02632030011616102
-0.335,-0.009354261260990976
-0.3325,0.08288507818759158
-0.33,0.04723994384127567
-0.3275,-0.06814747415152733
-0.325,-0.1416632894145912
-0.3225,0.04225764427632767
-0.32,0.07217694740792738
-0.3175,0.005055214648042297
-0.315,-0.01716644636867057
-0.3125,-0.005111148257606549
-0.31,0.0221676522326808
-0.3075,-0.0007871952151009332
-0.305,0.01738581610273338
-0.3025,0.09745839590836856
-0.3,0.03930783629307381
-0.2975,-0.3314029241928553
-0.295,-0.0214722200978064
-0.2925,0.07321196595995694
-0.29,0.06129727199503127
-0.2875,0.05252553981784707
-0.285,0.0928821505556866
-0.2825,-0.0213750449301537
-0.28,-0.06812477466287674
-0.2775,-0.01882782611131165
-0.275,0.05386519606638158
-0.2725,-0.05351403329788239
-0.27,-0.02162703128705176
-0.2675,0.05486156908909057
-0.265,-0.00911289494484694
-0.2625,-0.0502696837019407
-0.26,0.02794167612971228
-0.2575,-0.01006062445712388
-0.255,0.004591634511212576
-0.2525,0.01193544406517184
-0.25,0.01397516778952242
-0.2475,0.04109394354442356
-0.245,0.02345318214814043
-0.2425,-0.09365494211799341
-0.24,-0.004679790597376754
-0.2375,-0.0348604215250455
-0.235,0.02398049419843131
-0.2325,0.02997629921358342
-0.23,0.04791207016883232
-0.2275,-0.0222338854115786
-0.225,-0.01354222399522534
-0.2225,0.001022865981343417
-0.22,-0.007280162179344737
-0.2175,-0.013584060123963
-0.215,0.0108838862534434
-0.2125,0.004157276291987256
-0.21,-0.001834878431367048
-0.2075,0.001137169307359947
-0.205,0.005936627695229898
-0.2025,0.0137237859250873
-0.2,-0.01243074070008895
-0.1975,-0.02905301417392554
-0.195,0.00226934406488829
-0.1925,0.001191726044181564
-0.19,0.0216314623011756
-0.1875,0.007238492085505625
-0.185,-0.004638839694742628
-0.1825,-0.008912804725147907
-0.18,0.001648943110827432
-0.1775,-0.008233030757631786
-0.175,0.0001939125517769964
-0.1725,0.01143290218627374
-0.17,-0.004170632127800119
-0.1675,-0.001363775004648693
-0.165,0.01286303544415746
-0.1625,-0.0001766263527986813
-0.16,-0.002327769380459873
-0.1575,-9.332544356367293e-06
-0.155,-0.007738611773684881
-0.1525,-0.02217796046468805
-0.15,-0.01195074232208394
-0.1475,0.01951615982993918
-0.145,0.01600429064867682
-0.1425,0.004330735271047607
-0.14,0.0008747268440093122
-0.1375,-0.002745312069562252
-0.135,0.003499421414161124
-0.1325,-0.006417779943866348
-0.13,0.005541389377275325
-0.1275,-0.005394872150846279
-0.125,0.003698706082208722
-0.1225,0.009538332300061975
-0.12,-0.01137798230322579
-0.1175,-0.01178027466713649
-0.115,-0.01156675674740687
-0.1125,-0.0005991825508781225
-0.11,0.0160492749958999
-0.1075,0.01320469507060457
-0.105,0.01135261561858585
-0.1025,-0.0170889906293144
-0.1,-0.01776942605969785
-0.0975,-0.004677543273057105
-0.095,0.01001884802297441
-0.0925,0.004625739523337389
-0.09,0.003148007062274061
-0.08749999999999999,0.005678924393482668
-0.08500000000000001,0.00855767362386412
-0.0825,-0.002330458823644868
-0.08,-0.009302603571240832
-0.0775,-0.007993759149337811
-0.075,-0.0001828524984923733
-0.0725,0.002492191394258195
-0.07000000000000001,0.006663479459342679
-0.0675,0.007578092241238116
-0.065,0.0006706660165488774
-0.0625,-0.006146588809447545
-0.06,0.0003606872266945601
-0.0575,-0.01462255007161604
-0.055,-0.0160329355173971
-0.0525,0.01527539506821524
-0.05,0.01974609242318385
-0.0475,-0.001360042046862212
-0.045,0.0006414453468631922
-0.0425,-0.001068326201668656
-0.04,-0.007600344787891877
-0.0375,-0.01318886712125455
-0.035,-0.003521832837533941
-0.0325,0.003202307221576672
-0.03,0.01269884457490877
-0.0275,0.004525847672365182
-0.025,0.002160495938019015
-0.0225,0.002654753237203365
-0.02,-0.004596542027446894
-0.0175,-0.01797718326918053
-0.015,-0.00691113415924075
-0.0125,0.005855816720119892
-0.01,0.01420393040596855
-0.0075,0.00506035303606434
-0.005,0.002162737150668701
-0.0025,0.006731565864839723
0,-0.01138580340878966
0.0025,-0.01085205966443648
0.005,-5.685009851040298e-05
0.0075,0.00569018845791472
0.01,0.007510145182590788
0.0125,0.005183903295769065
0.015,0.0002576151470816602
0.0175,-0.003611519898665484
0.02,-0.005617279353335398
0.0225,-0.001965747773868828
0.025,-0.006360200393540093
0.0275,0.001038096890631356
0.03,0.01373096404900315
0.0325,-0.002285393405122014
0.035,-0.008858111605581566
0.0375,0.005168894228579073
0.04,0.007825984082212866
0.0425,0.003529009785801818
0.045,-0.009913649143483066
0.0475,-0.01690231671279391
0.05,0.002253930857271847
0.0525,0.0141384340322466
0.055,0.008325665107004044
0.0575,-0.007495469120645431
0.06,-0.005589149713525999
0.0625,-0.002771011177786322
0.065,-0.005002352534885586
0.0675,0.01747174742678623
0.07000000000000001,0.007507802174543114
0.0725,0.009760244056944747
0.075,-0.003932724496543576
0.0775,-0.02397269508565023
0.08,-0.008532161372369366
0.0825,-0.00217973454754974
0.08500000000000001,0.002915414374437265
0.08749999999999999,0.005601691238020451
0.09,0.01068882242585626
0.0925,0.008210288014288922
0.095,0.006304226988571814
0.0975,0.001080485510255295
0.1,-0.02659992576773756
0.1025,-0.01905951028600789
0.105,0.003655767436761633
0.1075,0.01405272873528846
0.11,0.01628331861159524
0.1125,0.006414949055558325
0.115,-0.001506134922989283
0.1175,-0.003558313975089566
0.12,-0.007105633660824853
0.1225,-0.007639585026558537
0.125,-0.002707691260039884
0.1275,0.004246560587060272
0.13,0.007032693493779275
0.1325,-0.003290769276381128
0.135,0.005185371924505361
0.1375,0.001732870579863963
0.14,-0.004347559304233415
0.1425,-0.01956157991075009
0.145,0.01064999433049954
0.1475,-0.004702902648752389
0.15,0.002648232867540336
0.1525,0.01044371417796127
0.155,0.006837249842174323
0.1575,0.005091416934763266
0.16,-0.003858151430144568
0.1625,-0.01384037512369211
0.165,-0.003257044235484834
0.1675,-0.0005837464028100506
0.17,0.009041056118572756
0.1725,0.006592137564985075
0.175,0.003201441526763047
0.1775,-0.009811201287430769
0.18,-0.008190802434832729
0.1825,-0.0001990941175768603
0.185,-0.001710308302551934
0.1875,0.006959606667624818
0.19,0.005005248836282607
0.1925,-0.001853743077645244
0.195,-0.003416142013135025
0.1975,0.008029314898533894
0.2,-0.00192334542820517
0.2025,-0.01512195587593962
0.205,0.005521904626429871
0.2075,0.005993885520546034
0.21,-0.00256884748247652
0.2125,0.006212275643524725
0.215,0.002460404093021557
0.2175,-0.001877501346321512
0.22,-0.004716693965894428
0.2225,-0.01020041000529218
0.225,-0.005918373435542666
0.2275,0.01057884482189916
0.23,0.01407305571608716
0.2325,-0.01152241766874653
0.235,0.005709882102253743
0.2375,0.004971266315302214
0.24,-0.007848509320536191
0.2425,-0.01118316834543628
0.245,0.002704747660531362
0.2475,0.006277783331358936
0.25,0.009270036379040409
0.2525,0.006647279670167492
0.255,-0.001075764798040517
0.2575,-0.007482868714916517
0.26,-0.01732849813201229
0.2625,-0.005337439050955494
0.265,0.004996848294522395
0.2675,0.01074308814846051
0.27,0.01058949856603373
0.2725,0.006402845611056771
0.275,-0.003872474191364812
0.2775,-0.001532417504611869
0.28,-0.008659688441676396
0.2825,-0.01190649477187796
0.285,0.0001667479827207455
0.2875,0.01688464723635778
0.29,-0.001148056769154685
0.2925,-0.0109634820943135
0.295,0.002804819683933569
0.2975,-8.039868052089765e-05
0.3,-0.003137174520896958
0.3025,0.00132191110350342
0.305,0.004418468604175866
0.3075,-0.0005277329311899055
0.31,0.008661795869505768
0.3125,0.004089462392519101
0.315,-0.005410985240936899
0.3175,0.006293924200094943
0.32,-0.009273841796748814
0.3225,-0.01296787065286753
0.325,-0.002755643032695494
0.3275,0.001724578384357992
0.33,0.01105023186455961
0.3325,0.007716965028706075
0.335,-0.0006606542655354428
0.3375,-0.001068758467815814
0.34,-0.009293153151517068
0.3425,-0.002026113923473296
0.345,-0.003065388855805908
0.3475,0.004164597048584183
0.35,0.007074650060545993
0.3525,0.001028976980264851
0.355,-0.001388087886275205
0.3575,0.0004747398868804048
0.36,-0.003342583026810089
0.3625,0.0009432039177768173
0.365,-0.0001229784993204369
0.3675,-0.008936082640309789
0.37,0.002248143440129002
0.3725,0.007224698198889884
0.375,-0.006696474502051741
0.3775,-0.0002159933469166879
0.38,0.002028517686955957
0.3825,0.0062373706452291
0.385,-0.003301259215602773
0.3875,0.00118772148449242
0.39,0.008599516362973465
0.3925,0.005585360595420689
0.395,-0.008232747101096656
