0,56.97,28.57,10.00,13.84,14.04,10.00,12.00,11.85,3.99,16.67,1.50,5.66,27.81,0.00,41.67,4.83,0.00,0.00,0.00,0.00,13.92,0.00,0.00,0.67,19.10,0.00,2.22,1.81,12.03,0.00,0.00,1.46
0,58.41,30.00,10.00,14.77,14.31,10.00,11.00,13.45,5.21,23.33,1.50,7.06,27.84,0.00,43.33,4.74,0.00,0.00,0.00,0.00,14.14,0.00,0.00,0.67,19.53,0.00,2.22,1.87,12.01,0.00,0.00,1.40
0,58.98,30.00,10.00,15.21,13.75,10.00,11.00,12.16,5.34,23.33,1.50,7.16,27.37,0.00,41.67,4.68,0.00,0.00,0.00,0.00,14.77,0.00,0.00,0.83,20.12,0.00,2.22,2.02,12.07,0.00,0.00,1.36
0,56.94,28.57,6.67,14.95,14.63,11.50,11.50,12.64,5.34,23.33,1.50,7.16,26.27,0.00,36.67,4.35,0.00,0.00,0.00,0.00,14.74,0.00,0.00,0.81,20.18,0.00,2.22,2.04,12.51,0.00,0.00,1.49
0,58.45,28.57,6.67,15.36,15.22,12.00,12.00,12.82,5.34,23.33,1.50,7.16,26.76,0.00,36.67,4.47,0.00,0.00,0.00,0.00,15.21,0.00,0.00,0.85,20.43,0.00,2.22,2.11,12.60,0.00,0.00,1.53
0,61.62,32.86,10.00,17.34,16.04,13.00,13.00,13.22,5.39,23.33,1.50,7.17,27.45,0.00,38.33,4.71,0.00,0.00,0.00,0.00,15.34,0.00,0.00,0.86,20.39,0.00,2.22,2.09,12.72,0.00,0.00,1.58
0,60.95,31.43,10.00,17.34,16.90,14.00,14.00,13.66,7.42,30.00,2.00,9.52,25.87,0.00,36.67,4.04,0.00,0.00,0.00,0.00,15.13,0.00,0.00,0.84,19.83,0.00,2.22,1.97,12.70,0.00,0.00,1.55
0,62.07,32.86,10.00,17.17,17.49,14.50,15.00,13.85,10.30,40.00,3.50,14.24,26.16,0.00,40.00,4.01,0.00,0.00,0.00,0.00,14.67,0.00,0.00,0.83,19.84,0.00,2.22,2.04,12.76,0.00,0.00,1.55
0,63.67,35.71,10.00,18.73,18.16,15.50,15.50,14.01,11.18,43.33,4.00,16.81,26.08,0.00,40.00,3.95,0.00,0.00,0.00,0.00,14.72,0.00,0.00,0.84,20.21,0.00,2.22,2.29,12.31,0.00,0.00,1.50
0,65.48,35.71,10.00,19.61,19.64,16.00,17.00,15.45,11.21,43.33,4.00,16.82,25.25,0.00,36.67,3.79,0.00,0.00,0.00,0.00,14.41,0.00,0.00,0.81,19.38,0.00,0.00,2.20,12.33,0.00,0.00,1.54
0,63.00,34.29,6.67,19.03,20.22,16.50,17.00,15.88,11.20,43.33,4.00,16.82,25.76,0.00,38.33,3.88,0.00,0.00,0.00,0.00,13.77,0.00,0.00,0.76,19.58,0.00,0.00,2.22,12.54,0.00,0.00,1.57
0,64.57,34.29,6.67,19.05,20.24,16.50,17.00,15.88,11.20,43.33,4.00,16.82,27.10,0.00,41.67,4.28,0.00,0.00,0.00,0.00,13.71,0.00,0.00,0.75,20.11,0.00,0.00,2.31,12.03,0.00,0.00,1.46
0,67.88,37.14,10.00,21.74,20.22,16.50,17.00,15.88,11.20,43.33,4.00,16.82,27.61,0.00,45.00,4.32,0.00,0.00,0.00,0.00,14.08,0.00,0.00,0.80,21.02,0.00,0.00,2.37,12.34,0.00,0.00,1.55
0,67.41,37.14,10.00,21.68,19.95,16.00,17.00,15.85,11.20,43.33,4.00,16.82,27.21,0.00,43.33,4.21,0.00,0.00,0.00,0.00,14.13,0.00,0.00,0.81,20.54,0.00,0.00,2.38,12.27,0.00,0.00,1.50
0,65.38,35.71,6.67,21.06,19.44,15.50,16.50,15.66,11.20,43.33,4.00,16.82,27.45,0.00,43.33,4.23,0.00,0.00,0.00,0.00,14.54,0.00,0.00,0.82,21.57,0.00,2.22,2.51,12.27,0.00,0.00,1.48
0,65.64,35.71,6.67,21.18,18.86,15.00,16.00,15.49,11.20,43.33,4.00,16.82,29.39,0.00,48.33,4.91,0.00,0.00,0.00,0.00,15.22,0.00,0.00,0.92,21.88,0.00,2.22,2.62,12.95,0.00,0.00,1.64
0,66.30,34.29,6.67,21.79,18.25,14.50,15.00,15.27,11.20,43.33,4.00,16.82,29.48,0.00,48.33,4.86,0.00,0.00,0.00,0.00,15.03,0.00,0.00,0.92,21.30,0.00,2.22,2.50,12.82,0.00,0.00,1.65
0,69.55,37.14,10.00,24.38,17.46,13.50,14.00,14.89,11.21,43.33,4.00,16.82,30.43,0.00,51.67,5.19,0.00,0.00,0.00,0.00,15.19,0.00,0.00,0.99,21.73,0.00,2.22,2.53,13.01,0.00,0.00,1.70
0,69.91,38.57,10.00,24.03,16.41,12.50,12.50,14.51,11.21,43.33,4.00,16.82,30.20,0.00,48.33,5.17,0.00,0.00,0.00,0.00,15.45,0.00,0.00,1.02,22.22,0.00,2.22,2.57,13.22,0.00,0.00,1.78
0,70.92,38.57,10.00,25.46,13.91,11.00,10.50,12.36,11.21,43.33,4.00,16.82,30.28,0.00,46.67,5.29,0.00,0.00,0.00,0.00,15.93,0.00,0.00,1.06,22.02,0.00,2.22,2.57,12.91,0.00,0.00,1.71
0,72.55,37.14,10.00,26.25,11.75,10.00,9.00,8.85,10.79,40.00,3.50,16.82,30.11,0.00,46.67,5.23,0.00,0.00,0.00,0.00,15.59,0.00,0.00,1.03,22.28,0.00,2.22,2.61,12.61,0.00,0.00,1.64
0,71.96,37.14,10.00,26.08,10.19,8.50,7.50,7.30,8.18,30.00,2.50,12.66,30.48,0.00,46.67,5.39,0.00,0.00,0.00,0.00,15.86,0.00,0.00,1.08,23.02,0.00,2.22,2.75,12.67,0.00,0.00,1.71
0,69.96,34.29,10.00,25.74,9.02,8.00,7.50,5.48,6.74,23.33,2.50,10.00,30.79,0.00,46.67,5.67,0.00,0.00,0.00,0.00,15.73,0.00,0.00,1.09,22.90,0.00,2.22,2.70,12.84,0.00,0.00,1.73
0,68.25,31.43,10.00,25.07,8.71,8.00,8.00,4.55,6.32,20.00,2.50,9.66,31.22,0.00,48.33,5.74,0.00,0.00,0.00,0.00,14.90,0.00,0.00,0.97,22.94,0.00,2.22,2.67,13.11,0.00,0.00,1.80
0,68.87,30.00,10.00,24.62,8.06,7.00,7.50,4.06,6.32,20.00,2.50,9.66,31.54,0.00,51.67,5.75,0.00,0.00,0.00,0.00,14.98,0.00,0.00,0.97,22.71,0.00,2.22,2.55,13.33,0.00,0.00,1.95
0,69.31,31.43,10.00,24.94,7.67,6.50,7.50,3.87,6.32,20.00,2.50,9.66,31.22,0.00,50.00,5.70,0.00,0.00,0.00,0.00,14.57,0.00,0.00,0.96,22.31,0.00,2.22,2.50,13.38,0.00,0.00,1.99
0,66.05,28.57,6.67,23.68,7.71,6.50,7.50,3.91,6.24,20.00,2.50,9.66,31.90,0.00,53.33,5.59,0.00,0.00,0.00,0.00,14.51,0.00,0.00,0.96,22.02,0.00,2.22,2.47,13.41,0.00,0.00,1.94
0,65.46,25.71,6.67,23.31,7.54,6.00,7.50,3.78,4.69,13.33,2.00,7.47,33.03,0.00,56.67,6.17,0.00,0.00,0.00,0.00,14.63,0.00,0.00,1.00,22.30,0.00,2.22,2.50,13.53,0.00,0.00,2.00
0,65.59,25.71,6.67,23.60,7.32,6.00,6.50,3.65,2.62,6.67,1.00,3.80,33.07,0.00,55.00,6.22,0.00,0.00,0.00,0.00,14.35,0.00,0.00,0.96,21.76,0.00,2.22,2.41,14.11,0.00,0.00,2.10
0,64.08,25.71,6.67,22.76,7.28,6.00,6.50,3.63,2.42,10.00,1.00,3.15,32.81,0.00,53.33,6.37,0.00,0.00,0.00,0.00,14.26,0.00,0.00,0.96,21.68,0.00,2.22,2.23,14.56,0.00,0.00,2.29
0,61.93,25.71,6.67,21.56,6.54,5.50,5.00,3.45,3.78,16.67,1.00,5.08,32.52,0.00,51.67,6.32,0.00,0.00,0.00,0.00,14.24,0.00,0.00,0.97,21.92,0.00,2.22,2.17,14.71,0.00,0.00,2.30
0,63.08,28.57,6.67,21.58,6.56,5.50,5.50,3.20,4.06,16.67,1.00,5.27,31.82,0.00,50.00,6.09,0.00,0.00,0.00,0.00,14.28,0.00,0.00,0.97,21.59,0.00,2.22,2.06,14.74,0.00,0.00,2.37
0,62.09,25.71,6.67,21.16,8.64,7.00,6.50,5.71,4.51,20.00,1.00,5.44,30.57,0.00,46.67,5.66,0.00,0.00,0.00,0.00,14.32,0.00,0.00,0.99,20.43,0.00,2.22,1.87,15.11,0.00,0.00,2.42
0,58.76,24.29,3.33,18.59,9.31,8.00,7.00,6.41,4.51,20.00,1.00,5.44,29.45,0.00,43.33,5.48,0.00,0.00,0.00,0.00,13.88,0.00,0.00,0.95,20.30,0.00,2.22,1.82,15.07,0.00,0.00,2.44
0,59.71,24.29,3.33,18.67,9.84,8.50,7.50,6.57,4.51,20.00,1.00,5.44,30.15,0.00,46.67,5.73,0.00,0.00,0.00,0.00,14.00,0.00,0.00,0.94,20.54,0.00,2.22,1.83,15.08,0.00,0.00,2.43
0,58.98,22.86,3.33,18.45,11.58,9.50,8.50,8.25,4.84,20.00,1.00,5.47,29.89,0.00,46.67,5.66,0.00,0.00,0.00,0.00,13.84,0.00,0.00,0.94,20.17,0.00,0.00,1.74,14.83,0.00,0.00,2.42
0,59.58,22.86,3.33,18.54,13.63,10.50,10.00,10.71,6.64,26.67,1.50,7.02,29.47,0.00,43.33,5.44,0.00,0.00,0.00,0.00,13.32,0.00,0.00,0.88,20.09,0.00,0.00,1.70,15.10,0.00,0.00,2.52
0,59.22,22.86,6.67,18.00,14.42,11.50,10.50,10.95,8.79,33.33,3.00,11.90,30.07,0.00,48.33,5.48,0.00,0.00,0.00,0.00,13.06,0.00,0.00,0.84,20.17,0.00,0.00,1.66,14.65,0.00,0.00,2.41
0,57.20,22.86,3.33,16.34,15.49,12.00,12.00,11.72,9.48,36.67,3.00,12.85,29.54,0.00,46.67,5.36,0.00,0.00,0.00,0.00,12.71,0.00,0.00,0.79,19.27,0.00,0.00,1.55,14.60,0.00,0.00,2.43
0,57.78,22.86,3.33,16.28,17.23,13.50,13.50,13.20,9.50,36.67,3.00,12.85,30.31,0.00,51.67,5.44,0.00,0.00,0.00,0.00,12.26,0.00,0.00,0.73,18.77,0.00,0.00,1.50,14.57,0.00,0.00,2.42
0,58.17,25.71,3.33,16.08,19.27,14.50,15.00,15.61,9.51,36.67,3.00,12.85,31.98,0.00,58.33,5.92,0.00,0.00,0.00,0.00,11.64,0.00,0.00,0.69,18.86,0.00,0.00,1.50,14.25,0.00,0.00,2.31
0,58.56,27.14,3.33,16.20,19.50,14.50,15.00,15.78,9.53,36.67,3.00,12.85,31.98,0.00,58.33,5.94,0.00,0.00,0.00,0.00,11.65,0.00,0.00,0.68,18.60,0.00,0.00,1.45,14.32,0.00,0.00,2.31
0,58.16,28.57,3.33,15.11,19.33,14.50,15.00,15.77,9.53,36.67,3.00,12.85,32.08,0.00,58.33,5.93,0.00,0.00,0.00,0.00,11.43,0.00,0.00,0.65,18.21,0.00,0.00,1.38,14.15,0.00,0.00,2.29
0,62.31,32.86,6.67,16.83,18.74,14.00,14.00,15.53,9.53,36.67,3.00,12.85,32.00,0.00,58.33,5.79,0.00,0.00,0.00,0.00,11.54,0.00,0.00,0.65,18.89,0.00,0.00,1.51,13.98,0.00,0.00,2.27
0,62.82,34.29,6.67,17.74,17.87,13.00,13.00,15.15,9.55,36.67,3.00,12.85,32.27,0.00,61.67,5.77,0.00,0.00,0.00,0.00,11.34,0.00,0.00,0.62,18.77,0.00,0.00,1.52,13.88,0.00,0.00,2.25
0,61.20,34.29,6.67,17.06,17.70,13.00,13.00,15.11,9.54,36.67,3.00,12.85,31.65,0.00,56.67,5.71,0.00,0.00,0.00,0.00,11.58,0.00,0.00,0.63,18.75,0.00,0.00,1.50,13.33,0.00,0.00,2.16
0,60.87,34.29,6.67,16.66,17.61,13.00,13.00,15.10,9.55,36.67,3.00,12.85,31.62,0.00,60.00,5.68,0.00,0.00,0.00,0.00,11.80,0.00,0.00,0.62,19.66,0.00,4.44,1.64,12.99,0.00,0.00,1.93
0,59.16,32.86,6.67,15.51,17.02,12.50,12.00,14.98,9.56,36.67,3.00,12.85,30.85,0.00,58.33,5.51,0.00,0.00,0.00,0.00,11.72,0.00,0.00,0.59,20.17,0.00,4.44,1.76,13.16,0.00,0.00,1.93
0,58.65,31.43,6.67,15.17,15.90,11.00,10.50,14.41,9.54,36.67,3.00,12.85,29.48,0.00,56.67,4.92,0.00,0.00,0.00,0.00,11.93,0.00,0.00,0.60,20.21,0.00,4.44,1.76,13.11,0.00,0.00,1.98
0,57.86,30.00,6.67,14.83,15.45,10.50,10.50,14.18,9.52,36.67,3.00,12.85,30.44,0.00,61.67,5.11,0.00,0.00,0.00,0.00,12.16,0.00,0.00,0.61,20.71,0.00,4.44,1.83,12.97,0.00,0.00,1.89
0,56.84,27.14,6.67,14.35,15.08,10.00,10.50,14.09,8.25,30.00,2.00,11.67,29.53,0.00,58.33,4.81,0.00,0.00,0.00,0.00,11.85,0.00,0.00,0.60,19.88,0.00,4.44,1.78,12.31,0.00,0.00,1.71
0,59.24,30.00,6.67,15.38,14.97,10.00,10.50,14.08,6.56,23.33,2.00,8.09,29.87,0.00,60.00,4.76,0.00,0.00,0.00,0.00,11.93,0.00,0.00,0.60,19.55,0.00,4.44,1.70,12.56,0.00,0.00,1.73
0,59.89,30.00,6.67,15.84,13.60,9.00,9.50,12.80,5.95,20.00,2.00,7.59,30.40,0.00,63.33,4.98,0.00,0.00,0.00,0.00,11.83,0.00,0.00,0.59,19.49,0.00,4.44,1.81,12.27,0.00,0.00,1.65
0,57.59,27.14,6.67,14.95,11.83,8.00,8.50,10.23,5.55,16.67,2.00,7.43,29.29,0.00,60.00,4.66,0.00,0.00,0.00,0.00,11.69,0.00,0.00,0.57,19.73,0.00,4.44,1.89,11.81,0.00,0.00,1.55
0,57.38,28.57,6.67,14.67,10.99,6.50,8.00,9.44,5.51,16.67,2.00,7.42,29.46,0.00,58.33,4.69,0.00,0.00,0.00,0.00,12.08,0.00,0.00,0.58,19.77,0.00,4.44,2.00,11.65,0.00,0.00,1.52
0,58.36,30.00,6.67,15.08,10.83,6.00,7.50,9.35,5.51,16.67,2.00,7.42,29.48,0.00,60.00,4.50,0.00,0.00,0.00,0.00,12.29,0.00,0.00,0.60,19.01,0.00,4.44,1.96,12.00,0.00,0.00,1.58
0,59.09,31.43,6.67,15.20,9.56,5.50,7.00,7.90,5.33,16.67,2.00,7.39,29.44,0.00,60.00,4.59,0.00,0.00,0.00,0.00,12.66,0.00,0.00,0.63,18.91,0.00,4.44,1.94,12.29,0.00,0.00,1.67
0,60.31,32.86,6.67,15.46,8.21,5.00,6.50,5.74,4.59,13.33,2.00,6.91,28.89,0.00,60.00,4.47,0.00,0.00,0.00,0.00,12.57,0.00,0.00,0.63,18.51,0.00,4.44,1.87,11.83,0.00,0.00,1.59
0,61.59,34.29,3.33,16.06,8.59,5.50,7.50,5.92,2.34,6.67,0.50,3.75,28.23,0.00,58.33,4.32,0.00,0.00,0.00,0.00,12.92,0.00,0.00,0.67,18.93,0.00,4.44,1.92,12.10,0.00,0.00,1.54
0,61.58,32.86,3.33,15.12,8.35,5.50,6.00,5.85,0.55,0.00,0.00,0.03,27.71,0.00,55.00,4.09,0.00,0.00,0.00,0.00,12.52,0.00,0.00,0.63,19.53,0.00,4.44,2.01,12.17,0.00,0.00,1.60
0,62.37,32.86,3.33,15.91,7.39,5.00,5.50,4.94,2.56,6.67,1.00,3.45,27.17,0.00,53.33,4.01,0.00,0.00,0.00,0.00,13.06,0.00,0.00,0.65,20.03,0.00,4.44,2.07,12.22,0.00,0.00,1.63
0,61.60,31.43,3.33,15.46,6.15,4.50,5.50,2.60,4.80,13.33,2.00,7.20,27.14,0.00,53.33,3.88,0.00,0.00,0.00,0.00,13.56,0.00,0.00,0.70,20.21,0.00,4.44,2.10,12.98,0.00,0.00,1.92
0,61.59,28.57,3.33,15.55,7.04,5.00,6.50,3.83,6.11,20.00,2.50,9.20,27.40,0.00,53.33,3.99,0.00,0.00,0.00,0.00,13.71,0.00,0.00,0.69,20.31,0.00,4.44,2.11,13.26,0.00,0.00,2.04
0,62.00,27.14,3.33,15.80,8.31,6.50,7.00,4.96,6.18,20.00,2.50,9.22,26.76,0.00,53.33,3.90,0.00,0.00,0.00,0.00,13.50,0.00,0.00,0.68,20.64,0.00,4.44,2.13,13.18,0.00,0.00,1.99
0,58.01,22.86,0.00,14.60,9.00,7.00,8.00,5.36,6.18,20.00,2.50,9.22,26.86,0.00,51.67,3.96,0.00,0.00,0.00,0.00,13.44,0.00,0.00,0.68,20.00,0.00,4.44,1.97,13.12,0.00,0.00,1.96
0,56.32,21.43,0.00,12.73,9.61,7.50,8.50,5.50,6.16,20.00,2.50,9.22,26.85,0.00,50.00,3.86,0.00,0.00,0.00,0.00,14.16,0.00,0.00,0.75,20.01,0.00,4.44,1.98,13.20,0.00,0.00,1.96
0,60.24,25.71,0.00,13.97,11.60,9.00,10.50,6.73,6.84,23.33,2.50,9.77,27.40,0.00,51.67,4.04,0.00,0.00,0.00,0.00,13.89,0.00,0.00,0.73,19.91,0.00,4.44,1.99,13.19,0.00,0.00,2.04
0,59.67,25.71,0.00,13.93,12.46,9.50,11.00,8.32,8.91,33.33,3.50,13.01,26.59,0.00,48.33,3.93,0.00,0.00,0.00,0.00,13.84,0.00,0.00,0.72,18.88,0.00,0.00,1.85,13.29,0.00,0.00,2.06
0,59.77,25.71,0.00,14.20,14.22,10.50,12.00,10.12,10.97,40.00,4.50,16.80,26.73,0.00,46.67,4.00,0.00,0.00,0.00,0.00,13.82,0.00,0.00,0.73,18.95,0.00,0.00,1.80,13.31,0.00,0.00,2.11
0,59.12,25.71,0.00,14.20,15.60,11.50,13.50,11.32,11.20,40.00,4.50,17.07,27.20,0.00,48.33,4.10,0.00,0.00,0.00,0.00,13.66,0.00,0.00,0.71,18.80,0.00,0.00,1.79,13.11,0.00,0.00,2.06
0,62.37,30.00,3.33,15.77,17.27,12.50,15.00,12.90,11.21,40.00,4.50,17.07,26.27,0.00,43.33,3.91,0.00,0.00,0.00,0.00,13.98,0.00,0.00,0.74,18.54,0.00,0.00,1.77,13.37,0.00,0.00,2.05
0,62.06,30.00,3.33,15.68,19.33,13.50,16.50,15.36,11.19,40.00,4.50,17.07,27.80,0.00,46.67,4.25,0.00,0.00,0.00,0.00,13.88,0.00,0.00,0.72,18.96,0.00,0.00,1.87,12.99,0.00,0.00,1.98
0,60.53,28.57,3.33,15.11,19.38,13.50,16.50,15.36,11.18,40.00,4.50,17.07,29.43,0.00,50.00,4.97,0.00,0.00,0.00,0.00,14.13,0.00,0.00,0.77,19.64,0.00,0.00,2.08,12.86,0.00,0.00,1.96
0,60.31,28.57,3.33,15.23,19.30,13.50,16.50,15.36,11.18,40.00,4.50,17.07,28.76,0.00,48.33,4.87,0.00,0.00,0.00,0.00,14.04,0.00,0.00,0.76,19.65,0.00,0.00,2.07,12.82,0.00,0.00,1.96
0,62.91,31.43,6.67,16.76,19.35,13.50,16.50,15.36,11.18,40.00,4.50,17.07,29.52,0.00,50.00,5.05,0.00,0.00,0.00,0.00,14.08,0.00,0.00,0.76,19.79,0.00,0.00,2.04,13.02,0.00,0.00,1.96
0,64.89,32.86,10.00,18.39,19.28,13.50,16.50,15.36,11.17,40.00,4.50,17.07,29.68,0.00,53.33,5.09,0.00,0.00,0.00,0.00,13.90,0.00,0.00,0.77,20.14,0.00,0.00,2.09,13.24,0.00,0.00,2.00
0,66.07,34.29,13.33,19.40,18.96,13.50,16.50,15.31,11.17,40.00,4.50,17.07,29.40,0.00,50.00,5.12,0.00,0.00,0.00,0.00,13.62,0.00,0.00,0.76,20.35,0.00,0.00,2.02,13.01,0.00,0.00,1.99
0,64.44,32.86,13.33,18.85,18.46,13.00,16.00,15.22,11.16,40.00,4.50,17.07,30.77,0.00,53.33,5.54,0.00,0.00,0.00,0.00,13.33,0.00,0.00,0.78,20.99,0.00,2.22,2.13,12.80,0.00,0.00,1.87
0,64.15,34.29,13.33,18.94,17.82,12.50,15.00,14.93,11.16,40.00,4.50,17.07,31.23,0.00,55.00,6.07,0.00,0.00,0.00,0.00,13.58,0.00,0.00,0.82,22.16,0.00,4.44,2.62,12.61,0.00,0.00,1.82
0,65.53,35.71,13.33,19.64,16.87,11.50,14.00,14.40,11.16,40.00,4.50,17.07,32.50,0.00,56.67,6.48,0.00,0.00,0.00,0.00,13.44,0.00,0.00,0.82,21.89,0.00,4.44,2.61,12.64,0.00,0.00,1.84
0,68.67,38.57,23.33,21.74,16.41,11.00,14.00,14.24,11.16,40.00,4.50,17.07,33.59,0.00,61.67,6.73,0.00,0.00,0.00,0.00,13.78,0.00,0.00,0.87,22.23,0.00,6.67,2.77,12.23,0.00,0.00,1.72
0,74.40,41.43,33.33,27.49,15.69,10.50,13.00,13.93,9.28,33.33,3.50,13.96,33.51,0.00,61.67,6.74,0.00,0.00,0.00,0.00,13.51,0.00,0.00,0.89,22.66,0.00,8.89,2.85,11.77,0.00,0.00,1.63
0,73.22,41.43,33.33,27.33,14.95,10.00,11.50,13.67,7.21,26.67,2.50,10.15,32.27,0.00,56.67,6.45,0.00,0.00,0.00,0.00,14.62,0.00,0.00,1.10,22.56,0.00,8.89,2.83,11.99,0.00,0.00,1.70
0,76.50,45.71,36.67,30.36,14.35,9.00,10.50,13.26,5.65,20.00,2.00,7.90,34.37,0.00,63.33,7.08,0.00,0.00,0.00,0.00,15.67,0.00,0.00,1.29,22.57,0.00,8.89,2.85,11.88,0.00,0.00,1.51
0,79.82,47.14,40.00,33.44,12.80,8.00,10.50,10.98,5.47,20.00,2.00,7.85,35.60,0.00,66.67,7.84,0.00,0.00,0.00,0.00,16.17,0.00,0.00,1.32,23.01,0.00,11.11,3.01,11.98,0.00,0.00,1.51
0,83.76,51.43,43.33,36.99,12.79,8.00,10.50,10.73,5.47,20.00,2.00,7.85,36.34,0.00,68.33,8.26,0.00,0.00,0.00,0.00,16.81,0.00,0.00,1.41,23.06,0.00,11.11,3.02,12.30,0.00,0.00,1.56
0,82.30,50.00,43.33,36.47,13.45,8.50,11.00,11.35,5.47,20.00,2.00,7.85,36.59,0.00,68.33,8.48,0.00,0.00,0.00,0.00,16.26,0.00,0.00,1.38,23.32,0.00,11.11,3.02,12.26,0.00,0.00,1.53
0,83.55,50.00,46.67,38.33,13.12,8.00,10.00,11.13,5.28,20.00,2.00,7.85,36.91,0.00,70.00,8.59,0.00,0.00,0.00,0.00,15.99,0.00,0.00,1.35,23.14,0.00,11.11,3.01,11.87,0.00,0.00,1.37
0,90.07,58.57,56.67,41.54,11.44,7.50,9.00,8.84,3.33,10.00,1.00,6.01,37.24,0.00,70.00,8.61,0.00,0.00,0.00,0.00,16.09,0.00,0.00,1.39,23.05,0.00,11.11,3.01,12.16,0.00,0.00,1.42
0,93.46,60.00,60.00,44.02,11.06,8.00,9.00,8.41,1.15,3.33,0.00,0.96,38.40,0.00,75.00,8.77,0.00,0.00,0.00,0.00,17.42,3.33,0.00,1.79,23.11,0.00,11.11,3.08,12.30,0.00,0.00,1.46
0,95.21,61.43,60.00,44.84,10.59,8.00,9.00,7.19,0.88,3.33,0.00,0.01,40.01,0.00,75.00,9.35,0.00,0.00,0.00,0.00,17.56,3.33,0.00,1.82,23.47,0.00,11.11,3.26,12.09,0.00,0.00,1.35
0,97.04,61.43,60.00,46.39,9.70,8.00,8.50,6.03,3.73,13.33,1.50,4.59,40.94,0.00,75.00,10.00,0.00,0.00,0.00,0.00,17.54,3.33,0.00,1.81,23.69,0.00,11.11,3.26,12.04,0.00,0.00,1.39
0,97.46,62.86,60.00,46.72,8.33,7.50,8.00,3.89,5.33,20.00,2.00,8.19,41.28,0.00,78.33,10.15,0.00,0.00,0.00,0.00,17.70,3.33,0.00,1.82,23.86,0.00,11.11,3.28,12.19,0.00,0.00,1.42
0,101.18,67.14,63.33,48.66,9.92,8.50,9.00,5.89,5.76,23.33,2.00,8.55,39.40,0.00,75.00,9.35,0.00,0.00,0.00,0.00,17.85,3.33,0.00,1.81,23.38,0.00,11.11,3.12,12.33,0.00,0.00,1.47
0,106.19,68.57,70.00,52.34,10.82,9.00,9.50,6.44,5.77,23.33,2.00,8.55,39.80,0.00,75.00,9.53,0.00,0.00,0.00,0.00,17.74,3.33,0.00,1.80,23.46,0.00,11.11,3.13,12.44,0.00,0.00,1.50
0,109.76,68.57,73.33,54.71,13.05,10.50,11.50,8.17,5.77,23.33,2.00,8.55,40.70,0.00,80.00,9.44,0.00,0.00,0.00,0.00,18.05,3.33,0.00,1.84,23.81,0.00,11.11,3.18,12.78,0.00,0.00,1.55
0,108.30,67.14,70.00,53.01,14.51,11.50,13.50,10.19,5.77,23.33,2.00,8.55,41.13,0.00,78.33,9.68,0.00,0.00,0.00,0.00,18.56,3.33,0.00,1.90,23.36,0.00,11.11,3.14,12.66,0.00,0.00,1.52
0,113.77,68.57,73.33,58.19,15.40,12.50,14.50,10.62,6.93,30.00,2.50,9.72,42.08,0.00,80.00,10.10,0.00,0.00,0.00,0.00,18.81,3.33,0.00,1.92,23.38,0.00,11.11,3.18,12.75,0.00,0.00,1.50
0,116.52,71.43,76.67,59.26,16.16,13.50,15.50,10.96,9.02,36.67,3.50,13.39,40.97,0.00,78.33,9.93,0.00,0.00,0.00,0.00,19.01,3.33,0.00,1.95,22.89,0.00,11.11,3.13,12.90,0.00,0.00,1.53
0,117.90,71.43,76.67,60.14,17.08,14.50,16.50,11.48,9.16,36.67,3.50,13.44,40.19,0.00,80.00,9.04,0.00,0.00,0.00,0.00,18.86,3.33,0.00,1.91,22.35,0.00,11.11,2.79,12.94,0.00,0.00,1.55
0,119.43,71.43,80.00,60.63,19.19,15.50,18.50,13.57,9.17,36.67,3.50,13.44,38.39,0.00,75.00,8.56,0.00,0.00,0.00,0.00,18.52,3.33,0.00,1.90,22.31,0.00,11.11,2.73,12.93,0.00,0.00,1.57
0,118.86,70.00,73.33,60.57,21.79,17.00,20.50,16.02,9.17,36.67,3.50,13.44,37.69,0.00,73.33,8.39,0.00,0.00,0.00,0.00,18.51,3.33,0.00,1.88,22.46,0.00,11.11,2.70,13.03,0.00,0.00,1.62
0,118.31,70.00,70.00,61.70,22.67,17.50,21.00,17.70,9.18,36.67,3.50,13.44,37.30,0.00,71.67,8.35,0.00,0.00,0.00,0.00,18.47,3.33,0.00,1.89,22.26,0.00,6.67,2.70,13.33,0.00,0.00,1.66
0,117.04,71.43,70.00,59.99,22.70,17.50,21.00,17.71,9.17,36.67,3.50,13.44,38.19,0.00,73.33,8.51,0.00,0.00,0.00,0.00,17.52,3.33,0.00,1.70,22.34,0.00,6.67,2.70,13.07,0.00,0.00,1.61
0,118.40,72.86,73.33,60.53,22.51,17.50,21.00,17.68,9.17,36.67,3.50,13.44,38.39,0.00,68.33,9.03,0.00,0.00,0.00,0.00,16.54,3.33,0.00,1.52,21.96,0.00,6.67,2.66,12.54,0.00,0.00,1.54
0,114.22,70.00,70.00,57.29,22.20,17.50,20.50,17.66,9.17,36.67,3.50,13.44,36.51,0.00,65.00,7.94,0.00,0.00,0.00,0.00,16.65,3.33,0.00,1.53,21.85,0.00,4.44,2.54,12.15,0.00,0.00,1.52
0,115.33,71.43,73.33,57.56,21.16,16.50,19.00,17.29,9.16,36.67,3.50,13.44,36.00,0.00,65.00,7.69,0.00,0.00,0.00,0.00,16.11,3.33,0.00,1.46,22.14,0.00,4.44,2.56,12.19,0.00,0.00,1.53
0,117.14,72.86,73.33,58.56,20.03,15.50,18.00,16.40,9.17,36.67,3.50,13.44,36.30,0.00,68.33,7.60,0.00,0.00,0.00,0.00,16.74,3.33,0.00,1.53,22.15,0.00,4.44,2.58,12.40,0.00,0.00,1.66
0,113.64,71.43,70.00,55.91,19.24,14.50,17.50,16.03,9.17,36.67,3.50,13.44,35.78,0.00,63.33,7.50,0.00,0.00,0.00,0.00,16.37,3.33,0.00,1.50,22.05,0.00,4.44,2.60,12.76,0.00,0.00,1.71
0,112.14,70.00,60.00,55.86,18.88,14.00,17.50,15.94,9.14,36.67,3.50,13.44,35.81,0.00,65.00,7.60,0.00,0.00,0.00,0.00,16.06,3.33,0.00,1.48,22.04,0.00,4.44,2.61,12.66,0.00,0.00,1.67
0,109.08,67.14,60.00,53.63,18.40,13.50,17.00,15.79,9.14,36.67,3.50,13.44,35.96,0.00,65.00,7.54,0.00,0.00,0.00,0.00,14.93,0.00,0.00,1.10,21.50,0.00,4.44,2.49,12.47,0.00,0.00,1.72
0,109.99,68.57,60.00,54.52,17.40,12.50,15.50,15.39,9.15,36.67,3.50,13.44,33.70,0.00,56.67,7.23,0.00,0.00,0.00,0.00,14.90,0.00,0.00,1.06,21.43,0.00,4.44,2.37,12.77,0.00,0.00,1.86
0,104.92,64.29,56.67,51.96,16.31,11.50,14.50,14.51,7.11,26.67,2.50,10.01,32.19,0.00,55.00,6.54,0.00,0.00,0.00,0.00,15.19,0.00,0.00,1.13,21.13,0.00,4.44,2.33,12.59,0.00,0.00,1.88
0,109.42,68.57,63.33,53.38,15.85,10.50,13.50,14.17,4.93,20.00,1.50,6.25,31.26,0.00,53.33,5.95,0.00,0.00,0.00,0.00,15.15,0.00,0.00,1.16,21.09,0.00,4.44,2.28,12.75,0.00,0.00,1.97
0,110.86,67.14,66.67,54.04,14.68,10.50,12.50,12.42,3.85,13.33,1.50,4.90,32.00,0.00,53.33,6.19,0.00,0.00,0.00,0.00,15.24,0.00,0.00,1.19,22.03,0.00,4.44,2.39,12.67,0.00,0.00,1.96
0,108.81,65.71,63.33,51.82,14.59,10.50,13.00,12.09,3.83,13.33,1.50,4.90,31.68,0.00,51.67,6.32,0.00,0.00,0.00,0.00,15.04,0.00,0.00,1.19,21.69,0.00,4.44,2.31,12.70,0.00,0.00,1.97
0,103.95,62.86,56.67,47.95,14.56,10.50,12.50,11.96,3.84,13.33,1.50,4.90,30.81,0.00,46.67,6.25,0.00,0.00,0.00,0.00,14.96,0.00,0.00,1.18,20.83,0.00,4.44,2.16,12.64,0.00,0.00,1.94
0,103.24,64.29,53.33,48.29,14.17,10.50,12.50,11.06,3.85,13.33,1.50,4.90,30.52,0.00,45.00,6.18,0.00,0.00,0.00,0.00,14.22,0.00,0.00,1.10,20.76,0.00,4.44,2.09,12.57,0.00,0.00,1.99
0,99.18,62.86,46.67,44.19,14.80,10.50,13.00,11.74,2.95,10.00,1.00,3.94,30.83,0.00,45.00,6.02,0.00,0.00,0.00,0.00,14.14,0.00,0.00,1.09,20.67,0.00,4.44,2.04,12.52,0.00,0.00,2.02
0,100.69,65.71,50.00,44.16,15.54,11.00,14.00,12.94,0.75,0.00,0.00,0.37,30.73,0.00,43.33,5.92,0.00,0.00,0.00,0.00,14.02,0.00,0.00,1.06,20.12,0.00,2.22,1.92,12.44,0.00,0.00,2.03
0,98.47,64.29,50.00,43.49,16.21,11.00,14.50,13.84,1.77,3.33,0.50,1.21,29.98,0.00,38.33,5.92,0.00,0.00,0.00,0.00,14.26,0.00,0.00,1.12,19.88,0.00,0.00,1.87,12.06,0.00,0.00,1.98
0,98.11,65.71,50.00,42.95,15.98,11.00,14.50,13.42,3.94,10.00,2.00,6.29,31.63,0.00,45.00,6.62,0.00,0.00,0.00,0.00,14.45,0.00,0.00,1.14,19.91,0.00,0.00,1.91,12.25,0.00,0.00,2.04
0,97.91,65.71,46.67,43.77,16.78,11.00,14.50,15.16,5.17,20.00,2.00,7.74,32.43,0.00,45.00,6.79,0.00,0.00,0.00,0.00,14.56,0.00,0.00,1.14,19.80,0.00,0.00,1.86,12.28,0.00,0.00,2.00
0,92.96,61.43,43.33,38.93,16.44,11.00,14.50,14.81,5.28,20.00,2.00,7.80,31.95,0.00,41.67,6.69,0.00,0.00,0.00,0.00,14.34,0.00,0.00,1.09,18.54,0.00,0.00,1.57,12.36,0.00,0.00,2.07
0,91.14,60.00,40.00,37.08,18.53,12.50,16.50,16.65,5.28,20.00,2.00,7.80,32.60,0.00,46.67,6.77,0.00,0.00,0.00,0.00,14.18,0.00,0.00,1.09,18.42,0.00,0.00,1.55,12.28,0.00,0.00,2.05
0,86.54,55.71,33.33,33.36,19.93,13.50,18.50,18.21,5.29,20.00,2.00,7.80,31.51,0.00,46.67,6.13,0.00,0.00,0.00,0.00,13.96,0.00,0.00,1.08,18.31,0.00,0.00,1.50,12.82,0.00,0.00,2.20
0,89.30,58.57,36.67,34.25,20.90,14.50,19.50,18.71,5.49,20.00,2.00,7.84,31.81,0.00,46.67,6.14,0.00,0.00,0.00,0.00,13.82,0.00,0.00,1.07,17.57,0.00,0.00,1.46,12.90,0.00,0.00,2.18
0,86.56,58.57,33.33,32.74,21.64,15.50,20.50,19.04,7.08,26.67,2.50,9.96,31.58,0.00,46.67,6.14,0.00,0.00,0.00,0.00,13.65,0.00,0.00,1.03,17.01,0.00,0.00,1.40,12.94,0.00,0.00,2.18
0,87.08,60.00,33.33,32.30,22.97,16.50,21.50,20.04,9.45,33.33,3.50,13.65,31.22,0.00,45.00,5.92,0.00,0.00,0.00,0.00,13.42,0.00,0.00,1.01,16.72,0.00,0.00,1.34,12.80,0.00,0.00,2.08
0,88.05,58.57,33.33,33.17,24.17,17.50,22.50,20.77,11.23,40.00,4.50,17.39,31.03,0.00,48.33,5.79,0.00,0.00,0.00,0.00,13.79,0.00,0.00,1.04,17.07,0.00,0.00,1.33,12.48,0.00,0.00,2.05
0,87.65,58.57,33.33,31.96,25.45,19.00,24.00,21.36,11.27,40.00,4.50,17.41,31.91,0.00,48.33,6.23,0.00,0.00,0.00,0.00,14.26,0.00,0.00,1.08,17.29,0.00,0.00,1.37,12.62,0.00,0.00,2.13
0,87.36,55.71,33.33,32.51,27.28,20.00,26.00,23.55,11.27,40.00,4.50,17.41,31.99,0.00,46.67,6.34,0.00,0.00,0.00,0.00,14.20,0.00,0.00,1.06,17.24,0.00,0.00,1.39,12.70,0.00,0.00,2.10
0,86.93,55.71,33.33,31.87,27.97,20.50,26.00,24.15,11.27,40.00,4.50,17.41,31.63,0.00,46.67,6.07,0.00,0.00,0.00,0.00,13.90,0.00,0.00,1.03,16.55,0.00,0.00,1.22,12.33,0.00,0.00,1.98
0,89.85,58.57,33.33,32.39,27.91,20.50,26.00,24.14,11.29,40.00,4.50,17.41,32.75,0.00,53.33,6.29,0.00,0.00,0.00,0.00,13.49,0.00,0.00,0.97,16.51,0.00,0.00,1.22,12.01,0.00,0.00,1.83
0,87.23,54.29,30.00,31.79,27.51,20.00,25.50,24.06,11.28,40.00,4.50,17.41,32.81,0.00,51.67,6.37,0.00,0.00,0.00,0.00,13.50,0.00,0.00,0.89,16.35,0.00,0.00,1.22,11.78,0.00,0.00,1.73
0,83.22,52.86,23.33,29.95,27.10,19.50,25.50,24.00,11.28,40.00,4.50,17.41,32.48,0.00,53.33,6.11,0.00,0.00,0.00,0.00,13.82,0.00,0.00,0.88,15.36,0.00,0.00,1.10,11.90,0.00,0.00,1.77
0,81.31,51.43,23.33,28.98,26.23,19.00,24.50,23.49,11.28,40.00,4.50,17.41,31.53,0.00,51.67,5.79,0.00,0.00,0.00,0.00,14.13,0.00,0.00,0.91,15.74,0.00,0.00,1.19,11.97,0.00,0.00,1.78
0,80.13,51.43,23.33,28.48,24.82,17.50,23.50,22.52,11.28,40.00,4.50,17.41,31.58,0.00,53.33,5.76,0.00,0.00,0.00,0.00,14.29,0.00,0.00,0.93,16.38,0.00,0.00,1.21,12.07,0.00,0.00,1.73
0,79.07,50.00,23.33,27.26,23.36,16.50,22.00,21.26,11.27,40.00,4.50,17.41,31.80,0.00,55.00,5.66,0.00,0.00,0.00,0.00,14.46,0.00,0.00,0.90,16.31,0.00,0.00,1.22,12.32,0.00,0.00,1.80
0,81.40,50.00,26.67,29.16,21.88,15.50,20.00,19.96,11.27,40.00,4.50,17.41,30.68,0.00,55.00,5.47,0.00,0.00,0.00,0.00,14.31,0.00,0.00,0.90,16.25,0.00,0.00,1.21,12.26,0.00,0.00,1.75
0,77.62,44.29,20.00,27.94,20.39,14.50,18.00,19.00,11.28,40.00,4.50,17.41,30.32,0.00,53.33,5.34,0.00,0.00,0.00,0.00,14.12,0.00,0.00,0.87,17.09,0.00,0.00,1.37,12.50,0.00,0.00,1.75
0,77.46,42.86,20.00,27.24,18.31,13.00,16.00,17.32,11.27,40.00,4.50,17.41,30.29,0.00,53.33,5.32,0.00,0.00,0.00,0.00,13.59,0.00,0.00,0.77,16.92,0.00,0.00,1.32,12.83,0.00,0.00,1.84
0,78.94,47.14,20.00,27.84,16.66,12.00,14.50,15.30,8.89,33.33,3.00,13.91,29.57,0.00,48.33,4.80,0.00,0.00,0.00,0.00,13.64,0.00,0.00,0.77,17.21,0.00,0.00,1.35,12.95,0.00,0.00,1.91
0,76.90,44.29,16.67,26.28,14.45,11.00,13.00,11.98,6.79,23.33,2.50,10.05,29.74,0.00,51.67,4.75,0.00,0.00,0.00,0.00,13.63,0.00,0.00,0.74,17.61,0.00,0.00,1.36,13.00,0.00,0.00,1.92
0,76.83,44.29,16.67,26.34,12.54,9.50,11.50,9.64,6.44,20.00,2.50,9.62,29.81,0.00,55.00,4.70,0.00,0.00,0.00,0.00,13.43,0.00,0.00,0.73,17.92,0.00,0.00,1.42,13.09,0.00,0.00,1.91
0,80.22,50.00,20.00,27.83,11.24,8.50,10.00,7.99,6.43,20.00,2.50,9.62,28.77,0.00,50.00,4.57,0.00,0.00,0.00,0.00,13.24,0.00,0.00,0.70,18.58,0.00,2.22,1.55,13.24,0.00,0.00,1.90
0,81.03,50.00,20.00,27.56,9.86,7.50,8.00,6.67,6.43,20.00,2.50,9.62,29.00,0.00,50.00,4.56,0.00,0.00,0.00,0.00,13.29,0.00,0.00,0.68,19.12,0.00,2.22,1.77,12.76,0.00,0.00,1.73
0,79.97,48.57,20.00,26.96,9.09,7.00,7.50,5.88,6.27,20.00,2.50,9.58,28.43,0.00,51.67,4.30,0.00,0.00,0.00,0.00,13.45,0.00,0.00,0.71,19.68,0.00,2.22,1.83,12.94,0.00,0.00,1.78
0,78.23,45.71,16.67,26.28,8.62,6.50,6.50,5.53,4.76,13.33,2.00,7.64,28.54,0.00,51.67,4.31,0.00,0.00,0.00,0.00,13.53,0.00,0.00,0.70,20.35,0.00,2.22,2.01,13.07,0.00,0.00,1.87
0,77.91,44.29,16.67,26.09,7.75,5.50,6.00,4.71,2.74,6.67,1.00,4.02,28.55,0.00,53.33,4.31,0.00,0.00,0.00,0.00,13.05,0.00,0.00,0.64,20.42,0.00,2.22,2.06,12.78,0.00,0.00,1.81
0,79.18,47.14,20.00,26.81,7.46,5.50,6.00,4.33,0.61,0.00,0.00,0.06,28.75,0.00,53.33,4.49,0.00,0.00,0.00,0.00,13.59,0.00,0.00,0.74,20.78,0.00,2.22,2.10,13.23,0.00,0.00,1.88
0,77.84,45.71,20.00,25.69,7.56,5.50,6.00,4.41,2.11,6.67,1.00,2.33,27.02,0.00,50.00,3.76,0.00,0.00,0.00,0.00,13.44,0.00,0.00,0.72,21.00,0.00,4.44,2.13,13.29,0.00,0.00,1.89
0,74.60,44.29,16.67,23.64,7.40,5.50,5.00,4.62,3.82,13.33,1.50,4.97,27.21,0.00,50.00,3.69,0.00,0.00,0.00,0.00,13.75,0.00,0.00,0.76,21.46,0.00,4.44,2.32,13.40,0.00,0.00,1.90
0,73.64,42.86,16.67,23.44,6.45,4.50,5.00,2.59,4.35,16.67,1.50,5.39,28.40,0.00,55.00,4.05,0.00,0.00,0.00,0.00,13.28,0.00,0.00,0.74,21.76,0.00,4.44,2.35,13.50,0.00,0.00,1.96
0,74.82,45.71,16.67,24.71,8.51,6.00,6.00,5.01,4.38,16.67,1.50,5.39,27.62,0.00,51.67,4.00,0.00,0.00,0.00,0.00,13.43,0.00,0.00,0.76,21.37,0.00,4.44,2.33,14.01,0.00,0.00,2.13
0,73.62,42.86,13.33,23.74,9.93,7.50,7.50,6.38,4.38,16.67,1.50,5.39,27.69,0.00,50.00,4.06,0.00,0.00,0.00,0.00,13.22,0.00,0.00,0.76,21.96,0.00,4.44,2.36,14.33,0.00,0.00,2.22
0,76.80,44.29,16.67,24.98,10.89,8.50,8.50,6.94,4.38,16.67,1.50,5.39,27.54,0.00,46.67,4.06,0.00,0.00,0.00,0.00,12.73,0.00,0.00,0.73,21.86,0.00,4.44,2.33,14.70,0.00,0.00,2.30
0,77.08,44.29,16.67,25.31,12.54,9.50,9.50,8.50,5.41,23.33,1.50,6.06,28.24,0.00,50.00,4.11,0.00,0.00,0.00,0.00,12.34,0.00,0.00,0.70,21.84,0.00,4.44,2.34,14.83,0.00,0.00,2.39
0,77.95,45.71,16.67,25.71,14.14,10.50,11.00,10.02,7.41,33.33,2.00,7.95,27.75,0.00,48.33,4.04,0.00,0.00,0.00,0.00,12.22,0.00,0.00,0.70,22.03,0.00,4.44,2.42,14.94,0.00,0.00,2.42
0,79.32,47.14,16.67,26.54,14.79,11.50,11.50,10.20,9.60,40.00,3.50,13.13,28.09,0.00,48.33,4.04,0.00,0.00,0.00,0.00,12.16,0.00,0.00,0.71,22.01,0.00,4.44,2.46,14.70,0.00,0.00,2.42
0,76.00,45.71,13.33,25.96,15.60,12.00,12.50,10.64,10.29,43.33,3.50,14.08,28.45,0.00,45.00,4.40,0.00,0.00,0.00,0.00,12.20,0.00,0.00,0.71,22.41,0.00,4.44,2.56,15.45,0.00,0.00,2.57
0,75.14,45.71,13.33,24.03,17.66,13.50,14.00,12.76,10.31,43.33,3.50,14.08,28.31,0.00,45.00,4.38,0.00,0.00,0.00,0.00,12.57,0.00,0.00,0.74,21.58,0.00,4.44,2.43,15.27,0.00,0.00,2.48
0,74.13,45.71,13.33,23.79,17.93,13.50,14.00,12.98,10.32,43.33,3.50,14.08,29.61,0.00,51.67,4.63,0.00,0.00,0.00,0.00,12.47,0.00,0.00,0.73,21.59,0.00,4.44,2.43,15.51,0.00,0.00,2.49
0,75.45,44.29,16.67,25.64,17.92,13.50,14.00,12.98,10.31,43.33,3.50,14.08,30.53,0.00,55.00,4.92,0.00,0.00,0.00,0.00,12.61,0.00,0.00,0.77,20.79,0.00,4.44,2.34,15.64,0.00,0.00,2.51
0,78.98,48.57,16.67,26.86,17.74,13.50,14.00,12.97,10.32,43.33,3.50,14.08,29.77,0.00,50.00,4.72,0.00,0.00,0.00,0.00,12.66,0.00,0.00,0.77,20.88,0.00,4.44,2.40,15.63,0.00,0.00,2.43
0,81.43,50.00,20.00,27.23,17.58,13.50,14.00,12.94,10.31,43.33,3.50,14.08,29.78,0.00,48.33,4.82,0.00,0.00,0.00,0.00,12.27,0.00,0.00,0.75,21.01,0.00,4.44,2.47,15.73,0.00,0.00,2.45
0,78.52,45.71,20.00,27.07,17.40,13.50,14.00,12.92,10.31,43.33,3.50,14.08,30.26,0.00,48.33,4.95,0.00,0.00,0.00,0.00,12.56,0.00,0.00,0.76,20.32,0.00,2.22,2.31,15.52,0.00,0.00,2.41
0,80.03,47.14,20.00,29.74,17.21,13.50,14.00,12.90,10.32,43.33,3.50,14.08,30.85,0.00,48.33,5.16,0.00,0.00,0.00,0.00,12.40,0.00,0.00,0.76,19.93,0.00,2.22,2.16,15.06,0.00,0.00,2.35
0,80.74,47.14,16.67,30.81,16.73,13.00,13.50,12.77,10.32,43.33,3.50,14.08,31.06,0.00,48.33,5.38,0.00,0.00,0.00,0.00,12.25,0.00,0.00,0.75,20.28,0.00,2.22,2.23,14.88,0.00,0.00,2.31
0,79.06,45.71,16.67,30.21,16.27,12.50,13.00,12.65,10.30,43.33,3.50,14.08,30.23,0.00,46.67,5.10,0.00,0.00,0.00,0.00,12.12,0.00,0.00,0.75,20.00,0.00,2.22,2.12,14.78,0.00,0.00,2.24
0,77.08,42.86,16.67,29.03,15.78,12.00,12.50,12.56,10.28,43.33,3.50,14.08,30.08,0.00,45.00,5.11,0.00,0.00,0.00,0.00,12.57,0.00,0.00,0.75,20.28,0.00,4.44,2.17,14.67,0.00,0.00,2.19
0,73.88,37.14,13.33,27.81,15.06,11.50,11.50,12.16,10.29,43.33,3.50,14.08,29.78,0.00,45.00,5.06,0.00,0.00,0.00,0.00,13.46,0.00,0.00,0.98,20.35,0.00,6.67,2.20,14.01,0.00,0.00,2.06
0,75.33,38.57,13.33,28.37,14.15,10.00,10.50,11.61,9.17,40.00,2.50,13.20,30.54,0.00,46.67,5.41,0.00,0.00,0.00,0.00,14.10,0.00,0.00,1.07,20.04,0.00,4.44,2.20,13.94,0.00,0.00,2.06
0,76.18,41.43,13.33,29.24,13.35,9.50,9.50,10.91,7.37,33.33,2.00,9.61,30.89,0.00,46.67,5.78,0.00,0.00,0.00,0.00,13.49,0.00,0.00,1.00,19.31,0.00,4.44,2.05,13.76,0.00,0.00,1.98
0,78.76,44.29,13.33,29.77,12.79,9.50,9.00,10.62,6.49,26.67,2.00,8.72,31.02,0.00,45.00,5.95,0.00,0.00,0.00,0.00,13.51,0.00,0.00,0.99,19.13,0.00,4.44,2.02,13.85,0.00,0.00,1.95
0,80.85,47.14,16.67,29.82,11.00,8.50,8.00,8.24,6.40,26.67,2.00,8.70,30.74,0.00,43.33,5.81,0.00,0.00,0.00,0.00,13.55,0.00,0.00,1.00,19.61,0.00,6.67,2.08,13.34,0.00,0.00,1.81
0,83.61,51.43,23.33,32.67,9.77,7.50,6.50,7.17,6.39,26.67,2.00,8.70,31.74,0.00,48.33,5.90,0.00,0.00,0.00,0.00,14.68,0.00,0.00,1.08,19.43,0.00,6.67,2.14,13.40,0.00,0.00,1.82
0,82.96,52.86,23.33,32.24,9.06,6.50,5.50,6.41,6.41,26.67,2.00,8.70,32.48,0.00,50.00,6.39,0.00,0.00,0.00,0.00,16.00,0.00,0.00,1.43,19.52,0.00,6.67,2.18,13.22,0.00,0.00,1.74
0,81.80,52.86,20.00,31.73,8.00,5.50,5.50,5.12,5.57,20.00,2.00,8.08,32.06,0.00,46.67,6.35,0.00,0.00,0.00,0.00,17.54,0.00,0.00,1.71,19.15,0.00,6.67,2.11,12.39,0.00,0.00,1.57
0,82.25,54.29,20.00,32.19,6.94,5.00,4.50,3.76,4.66,13.33,2.00,7.35,32.73,0.00,50.00,6.50,0.00,0.00,0.00,0.00,17.95,0.00,0.00,1.85,18.94,0.00,6.67,2.08,12.17,0.00,0.00,1.50
0,85.87,57.14,30.00,33.89,7.09,5.00,5.50,3.77,2.29,6.67,0.50,3.76,32.72,0.00,51.67,6.54,0.00,0.00,0.00,0.00,18.08,0.00,0.00,1.88,18.77,0.00,6.67,2.04,12.48,0.00,0.00,1.60
0,89.03,60.00,33.33,34.98,8.11,5.50,6.00,4.81,2.41,10.00,1.00,3.14,32.80,0.00,55.00,6.29,0.00,0.00,0.00,0.00,18.04,0.00,0.00,1.89,18.95,0.00,6.67,2.06,12.35,0.00,0.00,1.56
0,89.54,61.43,33.33,35.54,7.38,5.50,5.00,4.59,4.51,16.67,2.00,7.04,33.41,0.00,58.33,6.56,0.00,0.00,0.00,0.00,18.76,0.00,0.00,2.01,18.96,0.00,6.67,2.13,12.01,0.00,0.00,1.52
0,92.97,62.86,36.67,36.96,7.03,5.50,5.50,3.27,6.52,23.33,3.00,10.58,33.21,0.00,56.67,6.66,0.00,0.00,0.00,0.00,19.84,0.00,0.00,2.23,19.41,0.00,6.67,2.28,11.28,0.00,0.00,1.39
0,96.85,68.57,50.00,38.89,8.23,6.00,6.50,4.15,7.14,26.67,3.00,11.04,35.59,0.00,61.67,7.11,0.00,0.00,0.00,0.00,20.97,0.00,0.00,2.41,19.65,0.00,6.67,2.32,11.94,0.00,0.00,1.60
0,98.29,67.14,53.33,41.51,10.30,7.50,7.50,6.51,7.15,26.67,3.00,11.04,36.81,0.00,63.33,7.98,0.00,0.00,0.00,0.00,21.01,0.00,0.00,2.39,19.83,0.00,6.67,2.38,11.65,0.00,0.00,1.55
0,102.64,68.57,56.67,48.23,11.16,8.50,8.50,7.06,7.15,26.67,3.00,11.04,37.74,0.00,66.67,8.31,0.00,0.00,0.00,0.00,24.28,10.00,0.00,3.01,20.61,0.00,8.89,2.43,12.03,0.00,0.00,1.59
0,107.23,70.00,63.33,51.52,11.87,9.00,9.50,7.33,7.73,30.00,3.00,11.28,41.31,10.00,73.33,10.35,0.00,0.00,0.00,0.00,28.85,16.67,5.00,5.46,24.84,4.44,15.56,4.22,12.96,0.00,0.00,1.91
0,109.82,71.43,70.00,55.44,12.65,10.00,10.50,7.54,9.52,36.67,4.00,14.42,46.85,20.00,81.67,12.88,0.00,0.00,0.00,0.00,31.71,20.00,5.00,6.11,25.40,4.44,17.78,4.37,14.75,0.00,0.00,2.32
1,114.28,75.71,76.67,57.29,13.40,10.50,12.00,7.94,11.92,46.67,5.00,18.71,48.81,25.00,85.00,13.11,0.00,0.00,0.00,0.00,32.75,20.00,5.00,6.23,25.95,4.44,20.00,4.56,16.72,0.00,0.00,2.88
1,123.78,81.43,93.33,64.94,14.80,12.00,13.00,8.89,12.21,46.67,5.00,19.07,54.47,35.00,88.33,16.85,0.00,0.00,0.00,0.00,34.69,26.67,5.00,6.99,26.29,4.44,20.00,4.57,18.57,3.33,0.00,3.85
1,131.43,87.14,100.00,70.81,16.81,13.00,14.50,11.23,12.22,46.67,5.00,19.07,56.44,40.00,93.33,18.46,0.44,0.00,0.00,0.26,37.26,30.00,5.00,7.66,27.05,4.44,22.22,4.79,19.40,3.33,0.00,4.14
1,133.89,91.43,100.00,71.64,17.03,13.00,14.50,11.40,12.22,46.67,5.00,19.07,59.65,40.00,96.67,19.56,0.51,0.00,0.00,0.30,40.49,33.33,5.00,9.39,28.31,4.44,22.22,4.90,19.96,3.33,0.00,4.34
1,139.55,95.71,103.33,76.21,16.89,13.00,14.50,11.39,12.22,46.67,5.00,19.07,61.96,50.00,100.00,21.38,0.51,0.00,0.00,0.30,42.07,43.33,5.00,10.10,28.72,4.44,24.44,5.05,21.21,3.33,0.00,4.70
1,143.31,94.29,110.00,78.59,16.57,12.50,14.50,11.32,12.20,46.67,5.00,19.07,61.92,50.00,103.33,21.20,0.51,0.00,0.00,0.30,42.91,43.33,5.00,10.17,30.24,4.44,31.11,5.43,21.22,3.33,0.00,4.73
1,147.60,97.14,113.33,81.34,16.35,12.50,14.50,11.28,12.20,46.67,5.00,19.07,63.53,50.00,108.33,21.50,0.54,0.00,0.00,0.30,44.25,43.33,5.00,10.42,31.66,4.44,35.56,5.66,22.05,3.33,0.00,5.04
1,151.46,97.14,120.00,87.28,16.33,12.50,14.50,11.28,12.22,46.67,5.00,19.07,65.82,50.00,110.00,22.86,0.55,0.00,0.00,0.30,45.64,43.33,5.00,10.71,32.63,4.44,35.56,5.88,23.07,3.33,0.00,5.51
1,154.82,98.57,123.33,88.92,16.18,12.50,14.50,11.26,12.22,46.67,5.00,19.07,68.25,60.00,110.00,24.73,0.55,0.00,0.00,0.30,48.15,50.00,5.00,11.45,32.90,4.44,35.56,5.88,26.46,13.33,16.67,8.10
1,155.99,100.00,126.67,90.39,15.81,12.00,14.50,11.18,12.21,46.67,5.00,19.07,71.33,65.00,113.33,26.01,1.93,1.00,5.00,4.18,47.82,53.33,5.00,11.97,33.81,4.44,37.78,6.02,26.49,13.33,16.67,8.08
1,162.04,102.86,133.33,96.59,15.34,11.50,13.50,11.07,12.21,46.67,5.00,19.07,72.21,65.00,115.00,26.96,2.03,1.00,5.00,4.23,49.22,53.33,5.00,12.58,35.39,4.44,44.44,6.28,27.31,13.33,16.67,8.28
1,166.83,105.71,140.00,99.35,14.74,11.00,13.00,10.77,12.21,46.67,5.00,19.07,75.29,75.00,115.00,28.84,2.03,1.00,5.00,4.23,50.31,53.33,5.00,12.89,36.27,4.44,46.67,6.46,28.34,13.33,16.67,8.55
1,167.99,104.29,140.00,103.01,14.29,10.50,12.00,10.55,12.21,46.67,5.00,19.07,77.63,80.00,118.33,30.62,2.03,1.00,5.00,4.23,53.45,56.67,5.00,13.97,37.56,4.44,53.33,6.71,28.69,13.33,16.67,8.66
1,171.66,104.29,143.33,108.11,13.79,10.50,12.00,9.90,10.74,40.00,4.00,16.54,77.93,80.00,118.33,30.71,2.03,1.00,5.00,4.23,55.77,56.67,5.00,14.63,39.73,4.44,62.22,7.30,29.21,13.33,16.67,8.85
1,175.50,108.57,153.33,110.34,13.51,10.50,11.50,9.51,8.34,30.00,3.00,12.37,79.27,80.00,120.00,31.64,2.03,1.00,5.00,4.23,56.46,56.67,5.00,14.70,41.40,6.67,66.67,7.74,29.40,13.33,16.67,8.86
1,180.42,112.86,160.00,111.74,13.87,10.50,12.00,9.69,6.32,23.33,2.00,8.75,80.31,80.00,123.33,32.12,2.03,1.00,5.00,4.23,56.40,56.67,5.00,14.77,41.46,6.67,68.89,7.64,30.23,13.33,16.67,9.11
1,177.33,108.57,146.67,115.59,14.34,11.00,13.00,9.94,5.58,20.00,2.00,8.05,78.03,80.00,115.00,31.62,2.03,1.00,5.00,4.23,57.52,56.67,5.00,15.04,41.62,6.67,68.89,7.69,30.08,13.33,16.67,9.19
1,181.29,111.43,146.67,118.85,13.34,11.00,13.00,8.48,5.96,23.33,2.00,8.04,76.23,80.00,113.33,30.62,2.03,1.00,5.00,4.23,60.39,66.67,5.00,16.24,42.36,6.67,71.11,7.77,30.13,13.33,16.67,9.11
1,179.95,112.86,156.67,112.83,13.37,11.00,13.00,8.36,8.48,33.33,3.50,12.10,75.58,80.00,111.67,30.58,2.03,1.00,5.00,4.23,60.54,63.33,5.00,16.19,41.93,6.67,71.11,7.68,30.64,13.33,16.67,9.31
1,180.87,114.29,156.67,112.20,14.43,11.50,13.00,9.54,9.16,36.67,3.50,13.61,72.81,70.00,110.00,28.56,2.03,1.00,5.00,4.23,60.12,60.00,5.00,15.71,37.81,2.22,62.22,6.00,29.55,13.33,16.67,8.99
1,178.72,110.00,153.33,112.41,14.87,12.00,13.50,10.35,7.90,30.00,3.00,12.93,68.53,60.00,105.00,26.45,2.03,1.00,5.00,4.23,57.95,60.00,0.00,14.54,37.32,2.22,60.00,5.82,28.41,13.33,16.67,8.74
1,177.36,108.57,146.67,111.20,14.42,11.50,12.00,10.16,5.42,23.33,1.50,8.31,65.93,60.00,96.67,25.50,2.03,1.00,5.00,4.23,57.47,60.00,0.00,14.34,37.72,2.22,60.00,5.83,27.09,13.33,16.67,8.34
1,174.94,107.14,140.00,109.83,13.68,11.00,11.50,9.71,6.23,23.33,2.50,8.59,63.71,55.00,100.00,24.11,2.03,1.00,5.00,4.23,58.26,60.00,0.00,14.45,38.33,2.22,62.22,6.08,26.31,10.00,16.67,8.32
1,174.40,105.71,136.67,108.36,12.50,10.50,11.00,7.65,6.86,26.67,2.50,9.45,60.31,45.00,98.33,21.27,1.81,1.00,5.00,4.08,57.14,56.67,0.00,13.93,38.67,2.22,62.22,6.20,25.84,10.00,16.67,7.68
1,174.29,104.29,140.00,109.60,13.92,11.50,12.50,9.28,6.88,26.67,2.50,9.46,59.17,45.00,96.67,20.85,1.53,1.00,5.00,3.94,55.39,53.33,0.00,13.03,38.24,2.22,64.44,6.08,25.75,10.00,16.67,7.53
1,173.80,102.86,143.33,109.69,14.18,11.50,12.50,9.52,6.91,26.67,2.50,9.46,58.63,45.00,96.67,20.02,1.52,1.00,5.00,3.94,54.08,50.00,0.00,12.08,37.97,2.22,64.44,6.01,26.76,10.00,16.67,7.93
1,174.30,105.71,150.00,109.19,14.19,11.50,12.50,9.52,6.90,26.67,2.50,9.46,59.42,45.00,100.00,20.10,1.67,1.00,5.00,3.98,53.72,43.33,0.00,11.91,36.90,2.22,57.78,5.61,26.75,10.00,16.67,7.93
1,177.45,105.71,156.67,111.54,14.19,11.50,12.50,9.52,6.90,26.67,2.50,9.46,58.58,45.00,96.67,19.92,1.70,1.00,5.00,3.99,54.20,43.33,0.00,12.10,36.78,2.22,53.33,5.94,26.32,10.00,16.67,7.81
1,178.10,107.14,160.00,111.82,14.19,11.50,12.50,9.52,6.88,26.67,2.50,9.45,55.08,45.00,91.67,18.42,1.69,1.00,5.00,3.99,52.60,43.33,0.00,11.75,35.92,2.22,53.33,5.74,25.78,10.00,16.67,7.39
1,174.32,104.29,153.33,110.04,14.19,11.50,12.50,9.52,6.87,26.67,2.50,9.45,53.56,35.00,90.00,17.03,1.69,1.00,5.00,3.99,52.86,46.67,0.00,12.15,38.54,2.22,60.00,6.54,23.19,0.00,0.00,5.16
1,181.70,110.00,173.33,111.43,14.19,11.50,12.50,9.52,6.87,26.67,2.50,9.45,52.76,35.00,91.67,16.72,0.41,0.00,0.00,0.46,51.38,40.00,0.00,10.90,38.41,2.22,60.00,6.62,23.40,0.00,0.00,5.05
1,175.34,105.71,166.67,107.96,14.10,11.50,12.50,9.50,6.87,26.67,2.50,9.45,51.56,30.00,95.00,15.05,0.21,0.00,0.00,0.05,50.76,40.00,0.00,10.74,37.36,2.22,55.56,6.41,23.09,0.00,0.00,5.08
1,177.54,105.71,166.67,110.49,14.09,11.50,12.50,9.50,6.87,26.67,2.50,9.45,49.67,25.00,93.33,14.74,0.20,0.00,0.00,0.05,50.60,43.33,0.00,10.59,37.28,2.22,55.56,6.61,23.19,0.00,0.00,5.06
1,177.00,102.86,166.67,109.06,14.16,12.00,13.00,9.52,6.88,26.67,2.50,9.45,47.20,20.00,95.00,12.60,0.20,0.00,0.00,0.05,50.07,43.33,0.00,10.38,37.37,2.22,53.33,6.56,22.67,0.00,0.00,4.89
1,176.22,105.71,170.00,104.01,13.92,12.00,12.50,9.32,6.88,26.67,2.50,9.45,45.50,15.00,90.00,11.54,0.20,0.00,0.00,0.05,47.99,40.00,0.00,9.58,37.31,2.22,53.33,6.51,22.32,3.33,0.00,4.88
1,175.88,105.71,170.00,103.64,13.59,11.50,12.50,9.00,6.88,26.67,2.50,9.45,46.29,20.00,88.33,12.08,0.20,0.00,0.00,0.05,48.40,43.33,0.00,9.50,36.85,0.00,53.33,6.38,22.35,3.33,0.00,4.85
1,174.75,104.29,163.33,104.14,13.83,12.00,12.50,9.19,6.86,26.67,2.50,9.45,47.97,20.00,86.67,13.10,0.20,0.00,0.00,0.05,50.00,46.67,0.00,10.17,36.35,0.00,53.33,6.24,22.17,3.33,0.00,4.78
1,172.74,104.29,163.33,101.98,14.11,12.00,12.50,9.50,8.76,36.67,3.50,12.56,47.78,20.00,90.00,12.62,0.20,0.00,0.00,0.05,48.72,46.67,0.00,10.07,36.27,0.00,53.33,6.23,22.22,3.33,0.00,4.75
1,169.01,101.43,160.00,99.42,13.52,11.50,12.00,9.00,9.79,43.33,3.50,13.73,49.67,20.00,95.00,13.29,0.20,0.00,0.00,0.05,46.79,40.00,0.00,9.20,35.31,0.00,51.11,6.17,22.12,3.33,0.00,4.62
1,164.31,98.57,146.67,97.49,13.29,11.50,11.50,9.17,7.86,33.33,2.50,10.37,49.46,20.00,91.67,13.46,0.20,0.00,0.00,0.05,47.43,36.67,0.00,9.10,36.54,0.00,53.33,6.62,22.27,3.33,0.00,4.63
1,161.40,94.29,140.00,99.68,13.03,11.50,12.00,9.13,6.30,26.67,2.00,8.23,51.04,20.00,93.33,13.95,0.20,0.00,0.00,0.05,46.35,33.33,0.00,9.52,38.07,0.00,55.56,6.96,22.52,3.33,0.00,4.72
1,163.50,98.57,146.67,100.89,12.50,11.00,12.00,7.63,7.39,33.33,2.50,9.32,49.31,20.00,88.33,13.69,0.20,0.00,0.00,0.05,46.25,30.00,0.00,9.49,38.02,0.00,57.78,7.07,22.64,3.33,0.00,4.78
1,162.06,98.57,143.33,98.43,13.16,12.00,13.00,8.06,9.47,40.00,3.50,12.98,51.83,25.00,93.33,14.88,0.20,0.00,0.00,0.05,46.35,26.67,0.00,9.82,37.83,0.00,57.78,7.11,22.87,3.33,0.00,4.85
1,156.22,94.29,136.67,92.80,14.32,12.50,14.00,9.46,8.61,36.67,3.00,12.70,49.16,20.00,86.67,13.88,0.20,0.00,0.00,0.05,44.83,20.00,0.00,9.65,36.57,0.00,55.56,6.69,22.58,3.33,0.00,4.72
1,157.14,97.14,146.67,93.96,13.84,12.00,13.00,9.35,6.89,30.00,2.50,9.17,49.30,20.00,86.67,13.95,0.20,0.00,0.00,0.05,45.16,20.00,0.00,9.53,36.19,0.00,51.11,6.49,22.72,3.33,0.00,4.66
1,157.28,98.57,143.33,93.46,11.87,10.50,11.00,8.16,6.85,30.00,2.50,9.16,49.21,20.00,85.00,13.91,0.20,0.00,0.00,0.05,44.38,20.00,0.00,9.37,36.50,0.00,51.11,6.58,22.83,3.33,0.00,4.69
1,158.44,100.00,150.00,92.58,11.01,10.00,11.00,6.56,6.82,30.00,2.50,9.16,46.90,15.00,80.00,13.40,0.20,0.00,0.00,0.05,44.42,20.00,0.00,9.45,36.54,0.00,48.89,6.72,22.33,3.33,0.00,4.64
1,159.36,97.14,143.33,97.23,10.98,10.00,11.00,6.56,6.83,30.00,2.50,9.16,46.85,10.00,78.33,12.85,0.11,0.00,0.00,0.04,44.85,20.00,0.00,9.68,36.14,0.00,46.67,6.64,22.98,6.67,0.00,5.24
1,156.66,97.14,136.67,94.05,10.98,10.00,11.00,6.56,6.83,30.00,2.50,9.16,45.43,10.00,75.00,12.55,0.00,0.00,0.00,0.00,43.66,20.00,0.00,9.63,35.97,0.00,48.89,6.41,23.37,6.67,0.00,5.33
1,156.13,97.14,133.33,92.32,10.98,10.00,11.00,6.56,6.83,30.00,2.50,9.16,47.49,10.00,81.67,13.26,0.00,0.00,0.00,0.00,43.88,20.00,0.00,9.65,34.82,0.00,46.67,6.15,23.51,6.67,0.00,5.43
1,155.74,95.71,133.33,92.58,10.99,10.00,11.00,6.56,6.83,30.00,2.50,9.16,47.27,10.00,85.00,13.28,0.00,0.00,0.00,0.00,42.43,13.33,0.00,9.35,34.20,0.00,46.67,5.70,23.66,6.67,0.00,5.49
1,146.13,88.57,113.33,88.15,10.99,10.00,11.00,6.56,6.86,30.00,2.50,9.16,47.83,10.00,85.00,13.35,0.00,0.00,0.00,0.00,42.74,16.67,0.00,9.63,32.62,0.00,42.22,5.28,23.42,6.67,0.00,5.61
1,150.08,90.00,116.67,90.93,11.08,10.00,11.00,6.57,6.86,30.00,2.50,9.16,48.80,10.00,85.00,13.77,0.00,0.00,0.00,0.00,43.55,20.00,0.00,9.96,33.51,0.00,44.44,5.52,23.49,6.67,0.00,5.77
1,151.02,95.71,120.00,88.94,11.61,10.50,11.50,6.75,6.86,30.00,2.50,9.16,51.80,20.00,88.33,15.26,0.00,0.00,0.00,0.00,42.69,20.00,0.00,9.81,33.55,0.00,44.44,5.41,23.71,6.67,0.00,5.98
1,154.21,97.14,123.33,93.23,12.42,11.50,12.50,7.13,6.86,30.00,2.50,9.16,53.49,20.00,88.33,15.72,0.00,0.00,0.00,0.00,41.98,16.67,0.00,9.46,33.01,0.00,42.22,5.27,24.03,6.67,0.00,6.20
1,151.45,94.29,120.00,92.03,12.69,12.00,12.50,7.33,6.86,30.00,2.50,9.16,54.19,20.00,95.00,15.89,0.00,0.00,0.00,0.00,39.75,16.67,0.00,8.83,31.06,0.00,35.56,4.73,23.79,3.33,0.00,6.18
1,149.77,91.43,113.33,92.09,12.87,12.00,13.00,7.45,6.86,30.00,2.50,9.16,53.59,20.00,95.00,15.98,0.13,0.00,0.00,0.04,39.77,16.67,0.00,8.92,31.35,0.00,31.11,4.93,24.15,3.33,0.00,6.14
1,149.21,88.57,113.33,92.04,13.68,12.00,14.00,8.84,7.27,33.33,2.50,9.16,50.62,15.00,95.00,13.94,0.15,0.00,0.00,0.04,38.53,10.00,0.00,8.38,30.67,0.00,26.67,4.77,24.21,3.33,0.00,6.21
1,149.56,88.57,110.00,91.02,14.64,12.00,14.50,10.84,7.76,33.33,2.50,11.45,51.51,15.00,95.00,14.16,0.15,0.00,0.00,0.04,38.34,10.00,0.00,8.34,30.58,0.00,26.67,4.69,24.21,3.33,0.00,6.24
1,154.40,92.86,123.33,93.68,15.82,12.50,15.50,12.29,6.54,26.67,2.50,8.63,54.27,20.00,95.00,15.70,0.15,0.00,0.00,0.04,37.97,10.00,0.00,8.20,30.57,0.00,26.67,4.63,24.85,3.33,0.00,6.43
1,158.82,94.29,133.33,97.91,15.40,12.50,16.00,12.12,6.19,23.33,2.50,8.39,54.14,20.00,93.33,15.46,0.15,0.00,0.00,0.04,37.74,10.00,0.00,8.18,29.45,0.00,26.67,4.24,24.78,3.33,0.00,6.39
1,161.93,95.71,136.67,98.44,15.02,12.00,15.50,11.57,6.75,26.67,2.50,8.63,54.24,20.00,93.33,15.25,0.15,0.00,0.00,0.04,36.84,13.33,0.00,7.67,29.46,0.00,26.67,4.27,24.92,3.33,0.00,6.45
1,159.62,95.71,133.33,94.95,14.43,11.50,15.00,11.33,7.66,30.00,3.00,10.84,56.21,20.00,101.67,15.86,0.15,0.00,0.00,0.04,35.65,13.33,0.00,7.44,28.65,0.00,22.22,4.19,25.59,3.33,0.00,6.92
1,158.65,97.14,130.00,93.92,14.96,11.00,15.00,12.39,6.13,23.33,2.00,8.17,56.27,15.00,103.33,15.59,0.15,0.00,0.00,0.04,33.60,10.00,0.00,6.34,28.94,0.00,20.00,4.06,25.43,3.33,0.00,6.74
1,157.40,100.00,126.67,93.96,13.89,10.00,13.50,11.46,5.87,23.33,2.00,7.82,56.11,15.00,105.00,15.58,0.15,0.00,0.00,0.04,33.98,10.00,0.00,6.22,28.95,0.00,20.00,4.06,25.81,3.33,0.00,6.64
1,155.57,100.00,123.33,91.45,13.67,10.00,13.50,11.31,5.84,23.33,2.00,7.82,56.14,15.00,101.67,15.70,0.15,0.00,0.00,0.04,33.52,10.00,0.00,6.03,28.09,0.00,20.00,3.93,25.87,3.33,0.00,6.72
1,159.05,100.00,130.00,93.85,13.67,10.00,13.50,11.31,5.84,23.33,2.00,7.82,55.91,15.00,100.00,15.56,0.15,0.00,0.00,0.04,33.26,10.00,0.00,6.06,28.27,0.00,22.22,3.95,25.77,3.33,0.00,6.75
1,156.80,100.00,130.00,92.05,13.67,10.00,13.50,11.31,5.85,23.33,2.00,7.82,56.42,15.00,101.67,15.92,0.15,0.00,0.00,0.04,33.23,10.00,0.00,6.21,27.89,0.00,20.00,3.95,25.19,3.33,0.00,6.49
1,151.74,95.71,123.33,86.97,13.67,10.00,13.50,11.31,5.85,23.33,2.00,7.82,55.44,15.00,100.00,15.26,0.15,0.00,0.00,0.04,33.70,13.33,0.00,6.30,27.74,0.00,20.00,3.89,24.68,0.00,0.00,5.85
1,155.89,98.57,126.67,92.07,13.68,10.00,13.50,11.31,5.86,23.33,2.00,7.82,56.17,15.00,101.67,15.39,0.15,0.00,0.00,0.04,34.78,16.67,0.00,6.54,26.95,0.00,17.78,3.81,24.40,0.00,0.00,5.85
1,150.09,94.29,116.67,88.27,13.68,10.00,13.50,11.31,5.85,23.33,2.00,7.82,55.44,15.00,103.33,15.07,0.15,0.00,0.00,0.04,35.33,16.67,0.00,7.03,27.97,0.00,17.78,4.14,24.34,0.00,0.00,5.67
1,154.65,98.57,130.00,90.31,13.69,10.00,13.50,11.31,5.86,23.33,2.00,7.82,55.20,15.00,101.67,14.84,0.15,0.00,0.00,0.04,34.53,16.67,0.00,6.69,27.50,0.00,13.33,4.04,24.11,0.00,0.00,5.55
1,165.29,108.57,153.33,95.44,13.72,10.00,13.50,11.31,5.84,23.33,2.00,7.82,52.67,15.00,100.00,13.79,0.15,0.00,0.00,0.04,35.17,16.67,0.00,6.62,28.35,0.00,17.78,4.13,23.28,0.00,0.00,5.16
1,164.25,108.57,160.00,93.98,13.88,10.00,13.50,11.33,5.83,23.33,2.00,7.82,51.98,15.00,98.33,13.58,0.15,0.00,0.00,0.04,33.24,10.00,0.00,5.91,28.73,0.00,17.78,4.32,23.15,0.00,0.00,4.94
1,163.04,105.71,150.00,94.08,13.97,10.00,14.00,11.40,5.83,23.33,2.00,7.82,50.55,10.00,98.33,13.21,0.15,0.00,0.00,0.04,33.21,10.00,0.00,5.98,27.71,0.00,13.33,3.99,24.10,3.33,0.00,5.24
1,165.81,108.57,160.00,96.62,13.76,9.50,13.50,11.24,5.83,23.33,2.00,7.82,49.54,5.00,100.00,12.33,0.15,0.00,0.00,0.04,33.59,10.00,0.00,5.98,28.32,0.00,15.56,4.14,24.81,3.33,0.00,5.49
1,168.88,111.43,163.33,97.00,13.86,9.50,13.50,11.31,5.83,23.33,2.00,7.82,48.97,5.00,98.33,12.06,0.15,0.00,0.00,0.04,33.55,10.00,0.00,5.92,28.49,0.00,17.78,4.14,24.95,3.33,0.00,5.63
1,170.48,114.29,166.67,96.73,14.94,10.00,14.00,12.76,7.63,33.33,3.00,10.65,49.03,5.00,96.67,12.09,0.06,0.00,0.00,0.03,33.19,10.00,0.00,5.86,28.06,0.00,17.78,3.99,25.45,3.33,0.00,5.73
1,170.62,114.29,166.67,98.13,14.69,10.00,13.00,12.85,9.15,40.00,3.50,12.77,47.50,5.00,93.33,11.41,0.00,0.00,0.00,0.00,33.44,10.00,0.00,5.81,27.90,0.00,15.56,3.82,25.01,3.33,0.00,5.60
1,173.18,117.14,176.67,96.45,13.71,9.50,12.50,12.37,7.28,30.00,2.50,9.48,47.40,5.00,93.33,11.58,0.00,0.00,0.00,0.00,32.57,10.00,0.00,5.68,28.20,0.00,15.56,3.86,24.64,3.33,0.00,5.52
1,172.31,114.29,176.67,97.81,13.87,10.00,11.50,12.22,6.96,30.00,2.50,9.34,45.29,0.00,95.00,10.24,0.00,0.00,0.00,0.00,32.69,10.00,0.00,5.66,29.28,0.00,20.00,3.99,24.16,3.33,0.00,5.44
1,170.06,112.86,170.00,97.19,13.88,10.00,11.50,11.28,7.63,33.33,2.50,9.75,45.53,0.00,95.00,10.99,0.03,0.00,0.00,0.00,32.36,10.00,0.00,5.55,29.99,0.00,22.22,4.08,24.32,3.33,0.00,5.29
1,173.31,115.71,183.33,96.61,14.48,10.50,12.00,11.92,9.69,40.00,3.50,13.30,46.26,0.00,93.33,11.13,0.03,0.00,0.00,0.00,31.24,6.67,0.00,4.95,29.80,0.00,22.22,4.06,24.80,3.33,0.00,5.38
1,174.54,117.14,180.00,96.99,15.30,11.00,12.50,12.88,8.58,33.33,3.00,12.70,44.47,0.00,88.33,11.68,0.03,0.00,0.00,0.00,31.76,6.67,0.00,5.34,30.17,0.00,24.44,4.13,24.95,3.33,0.00,5.26
1,174.88,112.86,183.33,99.11,16.94,12.00,13.50,15.31,6.85,26.67,2.50,9.13,43.48,5.00,83.33,11.46,0.03,0.00,0.00,0.00,31.43,6.67,0.00,5.28,30.62,0.00,24.44,4.22,24.27,3.33,0.00,5.12
1,180.10,117.14,196.67,99.20,15.29,11.00,13.00,13.01,6.83,26.67,2.50,9.12,44.28,5.00,83.33,11.85,0.03,0.00,0.00,0.00,31.48,6.67,0.00,5.27,30.06,0.00,24.44,4.21,24.96,3.33,0.00,5.26
1,181.79,112.86,196.67,101.94,15.25,11.00,13.00,13.00,6.82,26.67,2.50,9.12,46.07,5.00,86.67,12.63,0.03,0.00,0.00,0.00,31.44,6.67,0.00,5.54,29.82,0.00,24.44,4.23,24.25,3.33,0.00,5.16
1,183.56,112.86,196.67,104.12,15.25,11.00,13.00,13.00,6.82,26.67,2.50,9.12,48.75,10.00,91.67,13.78,0.03,0.00,0.00,0.00,30.90,6.67,0.00,5.46,29.08,0.00,22.22,4.05,24.04,3.33,0.00,5.08
1,183.70,111.43,190.00,107.29,15.25,11.00,13.00,13.00,6.81,26.67,2.50,9.12,47.56,10.00,88.33,13.57,0.03,0.00,0.00,0.00,31.16,6.67,0.00,5.30,29.61,0.00,24.44,4.04,23.68,3.33,0.00,4.95
1,188.39,117.14,203.33,108.73,15.26,11.00,13.00,13.00,6.83,26.67,2.50,9.12,47.26,10.00,88.33,13.33,0.03,0.00,0.00,0.00,30.67,6.67,0.00,5.30,29.70,0.00,24.44,3.96,23.06,3.33,0.00,4.86
1,185.88,118.57,203.33,106.09,15.25,11.00,13.00,13.00,6.82,26.67,2.50,9.12,47.73,10.00,91.67,13.59,0.03,0.00,0.00,0.00,28.80,3.33,0.00,4.71,29.24,0.00,24.44,3.91,22.83,3.33,0.00,4.81
1,188.73,120.00,206.67,109.76,15.25,11.00,13.00,13.00,6.82,26.67,2.50,9.12,50.38,15.00,90.00,15.37,0.03,0.00,0.00,0.00,27.14,0.00,0.00,3.86,28.65,0.00,24.44,3.63,22.53,3.33,0.00,4.77
1,188.50,120.00,200.00,109.87,15.49,11.00,13.00,13.05,6.82,26.67,2.50,9.12,50.18,15.00,86.67,15.20,0.03,0.00,0.00,0.00,27.68,0.00,0.00,3.99,28.24,0.00,24.44,3.49,22.66,3.33,0.00,4.83
1,180.62,112.86,180.00,109.78,15.75,11.00,13.00,13.09,6.82,26.67,2.50,9.12,51.59,20.00,85.00,16.42,0.03,0.00,0.00,0.00,27.03,0.00,0.00,3.96,27.29,0.00,20.00,3.36,23.04,3.33,0.00,4.91
1,176.83,108.57,166.67,108.47,16.23,11.50,14.00,13.33,6.82,26.67,2.50,9.12,51.89,20.00,85.00,16.86,0.11,0.00,0.00,0.02,27.08,0.00,0.00,3.81,27.58,0.00,20.00,3.28,22.92,3.33,0.00,5.02
1,178.40,104.29,170.00,110.89,17.94,12.50,15.00,15.64,6.82,26.67,2.50,9.12,51.43,20.00,81.67,17.01,0.12,0.00,0.00,0.02,26.83,0.00,0.00,3.76,27.33,0.00,20.00,3.27,22.36,0.00,0.00,4.60
1,176.28,102.86,170.00,107.62,18.21,12.50,15.50,15.78,6.83,26.67,2.50,9.12,49.14,20.00,75.00,16.19,0.12,0.00,0.00,0.02,26.41,0.00,0.00,3.64,28.70,0.00,24.44,3.64,21.30,0.00,0.00,4.06
1,179.11,105.71,173.33,110.74,18.32,13.00,16.00,15.99,7.25,30.00,2.50,9.12,49.67,20.00,76.67,16.46,0.12,0.00,0.00,0.02,26.89,0.00,0.00,3.72,28.94,0.00,24.44,3.70,20.77,0.00,0.00,3.99
1,179.86,105.71,176.67,113.92,18.02,13.00,15.50,15.48,8.23,33.33,2.50,11.76,49.97,20.00,76.67,16.48,0.12,0.00,0.00,0.02,27.90,0.00,0.00,4.00,28.78,0.00,24.44,3.57,21.07,0.00,0.00,4.02
1,180.38,105.71,186.67,112.96,18.74,13.00,15.00,16.53,6.96,30.00,2.00,8.98,51.79,20.00,83.33,17.10,0.12,0.00,0.00,0.02,28.78,3.33,0.00,4.49,28.90,0.00,24.44,3.60,20.39,0.00,0.00,3.82
1,175.42,101.43,176.67,110.43,18.15,13.00,15.00,15.77,6.46,26.67,2.00,8.48,53.29,20.00,85.00,17.42,0.12,0.00,0.00,0.02,29.86,6.67,0.00,5.13,29.83,0.00,26.67,4.02,21.01,0.00,0.00,3.89
1,171.95,100.00,170.00,107.03,18.03,13.00,15.50,14.63,7.23,30.00,2.50,8.91,52.12,20.00,80.00,17.07,0.12,0.00,0.00,0.02,30.44,6.67,0.00,5.33,29.67,0.00,26.67,4.03,21.24,0.00,0.00,3.94
1,174.55,102.86,176.67,109.63,17.77,12.50,15.00,15.03,8.59,33.33,3.50,12.07,50.57,20.00,76.67,16.63,0.10,0.00,0.00,0.02,30.57,6.67,0.00,5.43,28.42,0.00,22.22,3.88,21.58,0.00,0.00,4.11
1,169.86,98.57,166.67,107.59,17.99,12.00,14.50,15.56,7.21,30.00,2.50,9.66,51.53,20.00,83.33,16.20,0.09,0.00,0.00,0.02,30.27,6.67,0.00,5.39,29.56,0.00,24.44,4.22,21.56,0.00,0.00,4.33
1,171.30,100.00,176.67,110.66,17.06,11.00,13.00,14.88,6.93,30.00,2.50,9.30,50.85,20.00,85.00,15.27,0.09,0.00,0.00,0.02,30.53,10.00,0.00,5.55,29.07,0.00,22.22,4.10,20.26,0.00,0.00,3.98
1,171.80,104.29,183.33,107.32,15.04,10.00,11.50,12.51,6.92,30.00,2.50,9.30,48.85,15.00,85.00,14.13,0.09,0.00,0.00,0.02,31.55,13.33,0.00,5.85,29.23,0.00,24.44,4.02,20.58,0.00,0.00,4.00
1,174.62,105.71,186.67,110.47,14.79,10.00,11.50,12.33,6.93,30.00,2.50,9.30,50.68,15.00,90.00,14.94,0.09,0.00,0.00,0.02,32.09,13.33,0.00,5.94,29.86,0.00,28.89,4.02,20.16,0.00,0.00,3.97
1,174.86,105.71,183.33,113.31,14.78,10.00,11.50,12.33,6.93,30.00,2.50,9.30,50.53,15.00,90.00,14.66,0.09,0.00,0.00,0.02,32.44,16.67,0.00,6.08,30.54,0.00,28.89,4.11,19.79,0.00,0.00,3.83
1,175.66,110.00,186.67,112.38,14.79,10.00,11.50,12.33,6.93,30.00,2.50,9.30,49.27,15.00,85.00,14.57,0.10,0.00,0.00,0.02,31.85,16.67,0.00,6.00,30.47,0.00,28.89,4.09,19.91,0.00,0.00,3.84
1,174.94,111.43,196.67,108.25,14.79,10.00,11.50,12.33,6.93,30.00,2.50,9.30,49.05,10.00,88.33,14.26,0.11,0.00,0.00,0.02,31.61,16.67,0.00,5.87,30.48,0.00,28.89,4.07,19.69,0.00,0.00,3.80
1,165.37,102.86,176.67,102.18,14.79,10.00,11.50,12.33,6.92,30.00,2.50,9.30,51.84,20.00,91.67,15.85,0.11,0.00,0.00,0.02,32.38,16.67,0.00,6.00,30.42,0.00,28.89,4.07,20.99,0.00,0.00,4.17
1,164.97,102.86,176.67,102.84,14.89,10.00,11.50,12.34,6.91,30.00,2.50,9.30,53.04,20.00,91.67,16.78,0.11,0.00,0.00,0.02,32.37,16.67,0.00,6.02,31.18,0.00,28.89,4.20,20.88,0.00,0.00,4.17
1,162.40,102.86,173.33,99.53,15.15,10.00,11.50,12.37,6.92,30.00,2.50,9.30,51.56,15.00,91.67,15.97,0.11,0.00,0.00,0.02,36.05,23.33,0.00,8.07,32.01,0.00,33.33,4.34,21.50,0.00,0.00,4.25
1,165.50,107.14,183.33,101.18,15.45,10.50,11.50,12.44,6.92,30.00,2.50,9.30,51.37,15.00,90.00,15.70,0.18,0.00,0.00,0.03,36.03,23.33,0.00,8.15,32.32,0.00,33.33,4.46,22.50,3.33,0.00,4.69
1,165.91,107.14,183.33,99.60,15.80,11.00,12.50,12.66,6.91,30.00,2.50,9.30,51.30,15.00,90.00,16.16,0.21,0.00,0.00,0.03,36.54,23.33,0.00,8.12,32.91,0.00,33.33,4.54,21.92,3.33,0.00,4.55
1,165.88,108.57,183.33,98.65,15.85,11.00,12.50,12.69,6.91,30.00,2.50,9.30,51.10,10.00,91.67,15.15,0.15,0.00,0.00,0.02,38.16,26.67,0.00,8.77,31.93,0.00,31.11,4.45,22.71,3.33,0.00,4.84
1,164.03,110.00,176.67,97.37,15.45,11.00,12.00,11.89,6.91,30.00,2.50,9.30,51.79,10.00,90.00,15.46,0.12,0.00,0.00,0.02,38.88,26.67,0.00,8.82,32.25,0.00,31.11,4.50,22.27,3.33,0.00,4.67
1,165.27,108.57,166.67,101.03,15.93,11.50,12.50,12.31,6.91,30.00,2.50,9.30,54.46,10.00,95.00,16.61,0.12,0.00,0.00,0.02,38.47,26.67,0.00,8.88,30.86,0.00,26.67,4.15,22.60,3.33,0.00,4.86
1,164.85,107.14,166.67,101.01,15.97,11.50,12.00,12.39,7.31,33.33,2.50,9.46,52.68,10.00,90.00,16.05,0.12,0.00,0.00,0.02,38.70,26.67,0.00,9.04,30.27,0.00,22.22,3.95,22.77,3.33,0.00,4.87
1,163.89,105.71,166.67,99.44,16.47,11.50,11.50,13.75,5.32,23.33,1.50,6.04,53.72,10.00,91.67,16.12,0.12,0.00,0.00,0.02,39.06,26.67,0.00,9.05,29.95,0.00,22.22,4.01,23.08,3.33,0.00,4.89
1,167.51,105.71,173.33,103.87,16.20,11.50,12.00,13.88,4.28,16.67,1.50,5.02,54.80,10.00,93.33,16.47,0.12,0.00,0.00,0.02,39.08,26.67,0.00,8.87,29.15,0.00,22.22,3.98,23.81,6.67,0.00,5.32
1,161.21,104.29,166.67,97.84,15.32,11.50,12.00,11.62,5.65,23.33,2.00,6.71,52.89,10.00,90.00,15.97,0.12,0.00,0.00,0.02,38.72,23.33,0.00,8.47,27.97,0.00,20.00,3.63,23.38,6.67,0.00,5.19
1,165.56,107.14,170.00,103.08,15.73,11.50,12.00,12.16,7.75,30.00,3.00,10.44,54.34,10.00,96.67,16.34,0.12,0.00,0.00,0.02,36.95,20.00,0.00,7.77,28.17,0.00,17.78,3.70,24.10,6.67,0.00,5.26
1,166.95,107.14,166.67,103.84,16.17,11.50,12.00,13.03,6.30,23.33,2.00,9.28,54.73,10.00,98.33,16.18,0.12,0.00,0.00,0.02,37.19,20.00,0.00,7.75,28.22,0.00,17.78,3.66,23.69,6.67,0.00,5.33
1,168.89,108.57,166.67,104.38,15.78,11.50,11.50,13.04,4.56,16.67,1.50,5.67,56.85,10.00,98.33,17.48,0.12,0.00,0.00,0.02,37.97,20.00,0.00,7.97,27.16,0.00,15.56,3.25,23.35,6.67,0.00,5.11
1,167.56,110.00,163.33,101.71,14.06,10.50,11.00,10.73,4.53,16.67,1.50,5.66,56.94,10.00,96.67,17.44,0.12,0.00,0.00,0.02,38.95,23.33,0.00,8.22,26.68,0.00,15.56,3.12,23.20,6.67,0.00,5.00
1,162.11,102.86,150.00,99.11,14.03,10.50,11.00,10.72,4.53,16.67,1.50,5.66,59.21,10.00,101.67,18.13,0.12,0.00,0.00,0.02,37.00,16.67,0.00,7.30,26.75,0.00,15.56,3.07,23.30,6.67,0.00,4.95
1,159.42,102.86,143.33,97.43,14.03,10.50,11.00,10.72,4.53,16.67,1.50,5.66,60.73,10.00,103.33,18.54,0.12,0.00,0.00,0.02,37.73,16.67,0.00,7.42,27.16,0.00,20.00,3.27,22.99,6.67,0.00,4.83
1,152.17,100.00,136.67,88.48,14.03,10.50,11.00,10.72,4.54,16.67,1.50,5.66,59.72,10.00,105.00,17.79,0.12,0.00,0.00,0.02,37.62,13.33,0.00,7.21,25.80,0.00,17.78,3.08,23.54,6.67,0.00,4.93
1,151.70,100.00,133.33,86.60,14.03,10.50,11.00,10.72,4.55,16.67,1.50,5.66,58.93,10.00,103.33,17.11,0.12,0.00,0.00,0.02,38.32,13.33,0.00,7.43,26.02,0.00,17.78,3.11,23.46,6.67,0.00,5.00
1,148.84,97.14,120.00,85.69,14.03,10.50,11.00,10.72,4.55,16.67,1.50,5.66,60.49,10.00,108.33,17.68,0.10,0.00,0.00,0.02,38.87,13.33,0.00,7.52,26.18,0.00,17.78,3.11,23.92,6.67,0.00,5.21
1,152.47,98.57,126.67,88.28,14.03,10.50,11.00,10.72,4.55,16.67,1.50,5.66,61.37,5.00,108.33,18.53,0.10,0.00,0.00,0.02,37.85,13.33,0.00,7.24,25.73,0.00,15.56,3.18,22.22,6.67,0.00,4.76
1,154.69,100.00,126.67,88.19,14.22,10.50,11.00,10.76,4.55,16.67,1.50,5.66,59.14,0.00,106.67,16.67,0.10,0.00,0.00,0.02,37.23,13.33,0.00,7.08,25.83,0.00,17.78,3.25,22.46,6.67,0.00,4.83
1,157.09,98.57,136.67,89.80,14.51,11.00,11.50,10.88,4.55,16.67,1.50,5.66,60.70,0.00,106.67,17.01,0.10,0.00,0.00,0.02,34.72,6.67,0.00,5.94,24.75,0.00,13.33,3.08,22.66,6.67,0.00,4.79
1,155.27,95.71,123.33,90.62,15.26,12.00,12.50,11.46,4.55,16.67,1.50,5.66,60.16,0.00,106.67,17.06,0.08,0.00,0.00,0.02,34.24,6.67,0.00,5.08,24.69,0.00,13.33,3.00,22.17,3.33,0.00,4.69
1,156.31,97.14,130.00,91.65,15.96,12.50,13.00,12.12,4.55,16.67,1.50,5.66,59.75,0.00,106.67,16.89,0.00,0.00,0.00,0.00,34.56,6.67,0.00,5.10,24.17,0.00,13.33,2.88,22.51,3.33,0.00,4.75
1,157.58,97.14,140.00,91.47,16.05,12.50,13.00,12.15,4.55,16.67,1.50,5.66,60.94,5.00,110.00,17.34,0.00,0.00,0.00,0.00,31.73,3.33,0.00,4.30,24.63,0.00,15.56,3.03,21.26,3.33,0.00,4.41
1,155.27,97.14,140.00,88.97,16.43,13.00,14.00,12.91,6.84,26.67,2.50,9.13,61.59,5.00,111.67,17.42,0.00,0.00,0.00,0.00,30.88,3.33,0.00,4.16,24.94,0.00,15.56,3.12,21.36,3.33,0.00,4.47
1,150.90,97.14,140.00,83.55,17.04,12.50,14.00,14.62,8.35,33.33,3.50,11.72,58.48,5.00,106.67,16.15,0.00,0.00,0.00,0.00,29.80,3.33,0.00,3.93,24.98,0.00,17.78,3.16,21.24,3.33,0.00,4.38
1,151.08,95.71,140.00,83.60,17.69,13.00,13.50,15.78,8.07,30.00,3.50,11.60,59.72,5.00,110.00,16.32,0.00,0.00,0.00,0.00,29.80,3.33,0.00,3.90,24.95,0.00,17.78,3.15,20.64,3.33,0.00,4.28
1,149.33,91.43,133.33,82.63,17.45,13.00,14.00,15.45,7.94,30.00,3.50,11.56,59.82,5.00,111.67,16.28,0.00,0.00,0.00,0.00,29.63,3.33,0.00,3.91,25.38,0.00,20.00,3.30,21.01,3.33,0.00,4.45
1,148.01,94.29,126.67,81.56,17.44,13.00,14.50,14.89,9.30,33.33,4.00,12.77,56.58,5.00,105.00,15.36,0.00,0.00,0.00,0.00,29.01,3.33,0.00,3.75,26.21,0.00,22.22,3.42,21.16,0.00,0.00,4.36
1,145.91,91.43,120.00,80.50,17.82,13.00,14.50,15.37,9.04,33.33,4.00,13.61,57.60,5.00,105.00,15.56,0.00,0.00,0.00,0.00,29.08,3.33,0.00,3.74,26.58,0.00,22.22,3.43,21.51,0.00,0.00,4.46
1,146.92,90.00,113.33,82.26,18.32,13.00,15.50,16.39,6.82,23.33,3.00,9.88,58.18,5.00,101.67,15.88,0.00,0.00,0.00,0.00,28.60,3.33,0.00,3.53,26.48,0.00,22.22,3.42,21.56,0.00,0.00,4.42
1,144.49,90.00,113.33,77.90,16.85,12.00,14.00,14.74,6.53,23.33,3.00,9.53,58.14,5.00,105.00,15.79,0.00,0.00,0.00,0.00,28.40,3.33,0.00,3.61,26.70,0.00,20.00,3.48,21.13,0.00,0.00,4.18
1,145.51,91.43,120.00,77.48,16.59,12.00,14.00,14.53,6.53,23.33,3.00,9.53,56.95,5.00,105.00,15.07,0.00,0.00,0.00,0.00,28.19,3.33,0.00,3.49,26.04,0.00,20.00,3.40,21.23,0.00,0.00,4.18
1,142.03,88.57,116.67,75.92,16.58,12.00,14.00,14.53,6.52,23.33,3.00,9.53,56.02,5.00,105.00,14.57,0.00,0.00,0.00,0.00,26.81,0.00,0.00,3.19,26.11,0.00,20.00,3.43,21.27,0.00,0.00,4.29
1,145.74,90.00,126.67,79.77,16.59,12.00,14.00,14.53,6.52,23.33,3.00,9.53,55.85,5.00,103.33,14.75,0.00,0.00,0.00,0.00,26.72,0.00,0.00,3.10,26.49,0.00,20.00,3.46,21.68,0.00,0.00,4.47
1,147.58,90.00,133.33,81.17,16.59,12.00,14.00,14.53,6.52,23.33,3.00,9.53,54.74,5.00,101.67,14.29,0.00,0.00,0.00,0.00,27.49,0.00,0.00,3.87,25.46,0.00,11.11,3.38,21.43,0.00,0.00,4.33
1,151.09,92.86,136.67,83.93,16.58,12.00,14.00,14.53,6.52,23.33,3.00,9.53,55.16,5.00,103.33,14.56,0.00,0.00,0.00,0.00,26.13,0.00,0.00,3.49,25.83,0.00,11.11,3.41,20.86,0.00,0.00,4.26
1,151.69,91.43,136.67,86.38,16.59,12.00,14.00,14.53,6.51,23.33,3.00,9.53,56.47,5.00,106.67,15.50,0.00,0.00,0.00,0.00,25.55,0.00,0.00,3.30,26.24,0.00,11.11,3.43,21.26,0.00,0.00,4.30
1,155.18,95.71,143.33,88.72,16.75,12.00,14.00,14.55,6.51,23.33,3.00,9.53,55.69,5.00,103.33,15.50,0.00,0.00,0.00,0.00,26.44,0.00,0.00,3.42,26.66,0.00,13.33,3.62,21.53,0.00,0.00,4.38
1,154.07,95.71,140.00,87.66,17.02,12.00,14.00,14.58,6.51,23.33,3.00,9.53,52.42,5.00,101.67,13.68,0.00,0.00,0.00,0.00,27.20,0.00,0.00,3.53,25.93,0.00,13.33,3.42,21.74,0.00,0.00,4.57
1,152.32,91.43,140.00,87.86,17.53,13.00,14.50,14.73,6.51,23.33,3.00,9.53,51.84,5.00,100.00,13.38,0.00,0.00,0.00,0.00,27.46,0.00,0.00,3.61,26.37,0.00,13.33,3.40,22.49,3.33,0.00,5.10
1,154.02,92.86,136.67,87.52,17.84,13.00,15.50,15.01,6.51,23.33,3.00,9.53,52.73,10.00,105.00,13.73,0.00,0.00,0.00,0.00,26.87,0.00,0.00,3.39,27.32,0.00,13.33,3.63,21.87,3.33,0.00,4.90
1,151.42,94.29,133.33,85.69,17.95,13.50,15.50,15.12,6.52,23.33,3.00,9.53,54.17,15.00,110.00,14.32,0.00,0.00,0.00,0.00,27.07,0.00,0.00,3.54,26.82,0.00,13.33,3.66,21.73,3.33,0.00,4.75
1,152.50,92.86,123.33,88.91,17.88,13.50,15.50,15.07,6.54,23.33,3.00,9.53,53.44,15.00,106.67,13.97,0.00,0.00,0.00,0.00,26.63,0.00,0.00,3.51,26.73,0.00,13.33,3.67,21.84,3.33,0.00,4.71
1,152.54,91.43,120.00,92.48,18.68,14.00,16.00,16.04,6.54,23.33,3.00,9.53,52.35,15.00,105.00,13.78,0.00,0.00,0.00,0.00,28.40,0.00,0.00,3.87,27.28,0.00,13.33,3.74,22.07,3.33,0.00,4.70
1,153.08,91.43,123.33,92.35,19.15,14.00,15.50,17.06,5.60,23.33,2.00,7.17,51.41,10.00,105.00,13.15,0.00,0.00,0.00,0.00,28.86,0.00,0.00,3.96,26.91,0.00,13.33,3.53,22.22,3.33,0.00,4.70
1,156.64,92.86,123.33,94.10,18.50,14.50,15.50,15.19,4.55,20.00,1.00,4.84,49.76,10.00,101.67,12.72,0.00,0.00,0.00,0.00,29.44,0.00,0.00,4.07,27.67,0.00,15.56,3.63,22.27,3.33,0.00,4.67
1,153.08,92.86,120.00,91.13,17.71,14.00,15.50,13.32,4.48,20.00,1.00,4.81,51.09,10.00,103.33,13.21,0.00,0.00,0.00,0.00,30.25,0.00,0.00,4.32,27.67,0.00,15.56,3.60,22.48,3.33,0.00,4.58
1,158.40,98.57,133.33,94.52,17.72,14.00,16.00,13.32,4.46,20.00,1.00,4.81,51.98,10.00,108.33,13.57,0.00,0.00,0.00,0.00,29.71,0.00,0.00,4.15,27.62,0.00,17.78,3.53,23.03,3.33,0.00,5.04
1,159.29,100.00,136.67,95.11,16.74,13.00,15.00,12.61,4.40,20.00,1.00,4.81,52.77,10.00,111.67,13.72,0.00,0.00,0.00,0.00,30.19,0.00,0.00,4.21,27.51,0.00,15.56,3.47,21.24,3.33,0.00,4.52
1,163.36,101.43,146.67,98.56,17.48,13.00,14.50,13.90,4.24,20.00,0.50,3.57,54.72,10.00,120.00,14.27,0.00,0.00,0.00,0.00,29.62,0.00,0.00,4.16,27.73,0.00,15.56,3.43,20.64,3.33,0.00,4.33
1,166.79,102.86,153.33,101.02,17.58,13.00,14.00,14.35,6.93,30.00,2.00,7.72,53.53,10.00,118.33,13.92,0.00,0.00,0.00,0.00,29.59,0.00,0.00,4.22,27.33,0.00,15.56,3.33,20.62,3.33,0.00,4.30
1,162.64,100.00,146.67,98.16,17.84,13.50,15.50,13.29,7.80,33.33,2.50,10.27,52.11,10.00,111.67,13.58,0.00,0.00,0.00,0.00,29.95,0.00,0.00,4.19,26.77,0.00,15.56,3.20,20.27,3.33,0.00,4.41
1,163.24,100.00,146.67,97.71,18.57,14.00,16.00,14.54,7.83,33.33,2.50,10.27,51.94,10.00,111.67,13.90,0.00,0.00,0.00,0.00,30.47,0.00,0.00,4.37,27.46,0.00,15.56,3.25,21.03,3.33,0.00,4.61
1,162.26,100.00,143.33,98.28,18.60,14.00,16.00,14.55,7.83,33.33,2.50,10.27,52.99,10.00,110.00,14.40,0.00,0.00,0.00,0.00,29.97,0.00,0.00,4.28,28.03,0.00,15.56,3.26,20.57,3.33,0.00,4.42
1,162.82,100.00,146.67,98.65,18.60,14.00,16.00,14.55,7.83,33.33,2.50,10.27,50.72,10.00,106.67,13.83,0.00,0.00,0.00,0.00,30.93,0.00,0.00,4.50,28.80,0.00,17.78,3.48,20.30,3.33,0.00,4.34
1,162.34,101.43,143.33,97.09,18.58,14.00,16.00,14.55,7.82,33.33,2.50,10.27,49.65,10.00,105.00,13.52,0.00,0.00,0.00,0.00,30.04,0.00,0.00,4.08,27.91,0.00,17.78,3.33,20.82,3.33,0.00,4.49
1,163.04,100.00,146.67,98.15,18.58,14.00,16.00,14.55,7.81,33.33,2.50,10.27,48.25,10.00,101.67,12.81,0.00,0.00,0.00,0.00,29.96,0.00,0.00,3.99,27.99,0.00,17.78,3.21,21.05,3.33,0.00,4.62
1,164.99,100.00,150.00,98.59,18.58,14.00,16.00,14.55,7.81,33.33,2.50,10.27,47.74,10.00,100.00,12.44,0.00,0.00,0.00,0.00,29.84,0.00,0.00,3.98,28.84,0.00,22.22,3.39,22.01,6.67,0.00,5.09
1,166.93,100.00,146.67,99.86,18.43,14.00,16.00,14.53,7.80,33.33,2.50,10.27,46.57,10.00,95.00,12.11,0.00,0.00,0.00,0.00,28.17,0.00,0.00,3.72,27.75,0.00,20.00,3.18,21.28,6.67,0.00,4.87
1,166.23,97.14,150.00,101.90,18.22,14.00,16.00,14.50,7.80,33.33,2.50,10.27,48.67,10.00,98.33,12.97,0.00,0.00,0.00,0.00,27.05,0.00,0.00,3.61,27.75,0.00,20.00,3.13,21.23,6.67,0.00,4.80
1,167.55,98.57,150.00,104.56,17.88,13.50,16.00,14.42,7.80,33.33,2.50,10.27,48.09,10.00,95.00,12.81,0.00,0.00,0.00,0.00,26.19,0.00,0.00,3.40,27.69,0.00,22.22,3.15,19.97,3.33,0.00,3.93
1,169.10,100.00,153.33,108.69,17.07,13.00,14.50,14.14,7.81,33.33,2.50,10.27,47.65,5.00,90.00,12.89,0.00,0.00,0.00,0.00,26.37,0.00,0.00,3.47,27.63,0.00,22.22,3.09,20.82,3.33,0.00,4.41
1,171.44,98.57,153.33,111.17,15.80,11.50,13.00,13.59,7.80,33.33,2.50,10.27,46.60,0.00,88.33,12.10,0.00,0.00,0.00,0.00,25.79,0.00,0.00,3.34,26.85,0.00,20.00,3.00,21.22,3.33,0.00,4.52
1,170.67,100.00,156.67,109.92,14.82,10.50,12.00,12.62,7.80,33.33,2.50,10.27,46.98,0.00,91.67,11.96,0.00,0.00,0.00,0.00,26.02,0.00,0.00,3.39,26.91,0.00,20.00,2.99,21.25,3.33,0.00,4.57
1,166.93,98.57,153.33,104.88,13.53,9.00,10.50,11.37,7.78,33.33,2.50,10.27,46.95,0.00,90.00,11.98,0.00,0.00,0.00,0.00,25.97,0.00,0.00,3.41,26.14,0.00,17.78,2.84,21.85,6.67,0.00,5.00
1,171.13,98.57,150.00,107.37,12.48,8.50,9.50,10.11,7.01,26.67,2.50,9.57,47.27,0.00,95.00,11.97,0.00,0.00,0.00,0.00,25.46,0.00,0.00,3.33,26.53,0.00,20.00,2.90,21.66,6.67,0.00,5.05
1,172.28,98.57,156.67,110.42,12.67,8.50,9.50,10.23,6.12,20.00,2.50,8.96,47.73,0.00,96.67,12.06,0.00,0.00,0.00,0.00,25.71,0.00,0.00,3.28,26.30,0.00,17.78,2.98,21.90,6.67,0.00,5.07
1,170.03,97.14,150.00,108.30,12.06,8.50,9.00,9.61,6.02,20.00,2.50,8.91,46.02,0.00,93.33,11.46,0.00,0.00,0.00,0.00,25.42,0.00,0.00,3.36,26.54,0.00,20.00,3.05,22.07,6.67,0.00,5.19
1,166.18,94.29,140.00,105.22,10.85,8.00,8.50,8.10,6.01,20.00,2.50,8.91,44.60,0.00,86.67,10.95,0.00,0.00,0.00,0.00,25.44,0.00,0.00,3.29,25.94,0.00,15.56,2.96,21.76,6.67,0.00,4.93
1,161.62,91.43,130.00,105.07,11.28,8.00,10.00,8.07,6.02,20.00,2.50,8.91,44.61,0.00,85.00,11.03,0.00,0.00,0.00,0.00,24.63,0.00,0.00,3.17,26.35,0.00,17.78,3.18,22.38,6.67,0.00,5.08
1,164.37,94.29,133.33,105.69,10.75,8.50,10.00,6.91,4.48,13.33,2.00,6.87,41.89,0.00,76.67,10.40,0.00,0.00,0.00,0.00,25.58,0.00,0.00,3.30,26.91,0.00,22.22,3.18,22.27,6.67,0.00,5.05
1,162.15,94.29,130.00,104.02,10.70,8.50,10.00,6.73,4.04,10.00,2.00,6.25,41.48,0.00,78.33,10.15,0.00,0.00,0.00,0.00,25.95,0.00,0.00,3.36,27.32,0.00,22.22,3.29,22.44,6.67,0.00,5.10
1,163.29,95.71,130.00,104.19,10.74,8.50,9.50,6.78,3.50,13.33,1.00,4.40,41.03,0.00,78.33,9.98,0.00,0.00,0.00,0.00,25.57,0.00,0.00,3.32,27.71,0.00,24.44,3.39,22.11,6.67,0.00,4.92
1,163.91,92.86,130.00,108.78,10.93,8.50,9.50,7.71,3.61,13.33,1.00,4.50,40.55,0.00,75.00,9.82,0.00,0.00,0.00,0.00,24.43,0.00,0.00,3.13,27.91,0.00,24.44,3.45,21.63,6.67,0.00,4.84
1,162.23,91.43,130.00,105.94,12.82,10.00,11.00,9.64,3.60,13.33,1.00,4.50,38.89,0.00,73.33,9.00,0.00,0.00,0.00,0.00,24.49,0.00,0.00,3.21,28.68,0.00,28.89,3.60,21.26,6.67,0.00,4.75
1,161.85,90.00,123.33,106.42,14.14,10.50,12.50,10.81,3.61,13.33,1.00,4.50,38.35,0.00,73.33,8.64,0.00,0.00,0.00,0.00,23.60,0.00,0.00,2.99,27.85,0.00,26.67,3.41,21.15,6.67,0.00,4.72
1,162.44,91.43,120.00,108.98,15.88,12.00,14.00,12.28,3.87,13.33,1.00,4.57,39.49,0.00,75.00,8.91,0.00,0.00,0.00,0.00,23.12,0.00,0.00,2.90,27.85,0.00,26.67,3.42,20.89,6.67,0.00,4.77
1,165.91,91.43,113.33,113.46,16.10,12.00,14.00,12.42,5.55,20.00,1.50,6.95,38.51,0.00,70.00,8.68,0.00,0.00,0.00,0.00,23.00,0.00,0.00,2.76,28.30,0.00,26.67,3.45,20.47,6.67,0.00,4.59
1,165.73,92.86,116.67,114.65,18.14,13.00,15.00,14.72,7.92,26.67,2.50,10.65,40.14,5.00,71.67,9.43,0.00,0.00,0.00,0.00,22.78,0.00,0.00,2.66,27.42,0.00,22.22,3.33,19.90,3.33,0.00,4.18
1,162.07,92.86,120.00,108.04,20.38,14.00,17.00,17.20,9.70,33.33,3.50,14.39,42.47,5.00,75.00,10.29,0.00,0.00,0.00,0.00,24.31,0.00,0.00,3.16,28.14,0.00,22.22,3.44,20.07,3.33,0.00,4.17
1,160.70,94.29,123.33,106.54,22.84,15.50,19.00,19.25,9.74,33.33,3.50,14.40,42.34,10.00,75.00,9.83,0.00,0.00,0.00,0.00,24.77,0.00,0.00,3.31,27.73,0.00,22.22,3.42,20.54,3.33,0.00,4.40
1,164.60,97.14,126.67,109.30,23.71,16.00,19.50,20.91,9.75,33.33,3.50,14.40,43.89,10.00,81.67,10.88,0.00,0.00,0.00,0.00,25.30,0.00,0.00,3.42,27.91,0.00,20.00,3.43,20.61,3.33,0.00,4.38
1,166.93,101.43,133.33,106.46,23.74,16.00,19.50,20.91,9.75,33.33,3.50,14.40,42.45,10.00,78.33,10.40,0.00,0.00,0.00,0.00,25.91,0.00,0.00,3.45,28.99,0.00,24.44,3.65,20.12,3.33,0.00,3.96
1,162.85,102.86,133.33,102.17,23.74,16.00,19.50,20.91,9.75,33.33,3.50,14.40,42.90,10.00,80.00,10.41,0.00,0.00,0.00,0.00,25.45,0.00,0.00,3.33,29.74,0.00,24.44,3.65,20.23,3.33,0.00,4.01
1,157.90,100.00,133.33,95.77,23.67,16.00,19.50,20.91,9.74,33.33,3.50,14.40,42.86,10.00,78.33,10.13,0.00,0.00,0.00,0.00,25.06,0.00,0.00,3.29,29.39,0.00,24.44,3.56,19.94,3.33,0.00,3.89
1,157.69,97.14,133.33,95.19,23.32,16.00,19.50,20.87,9.75,33.33,3.50,14.40,42.48,10.00,76.67,10.22,0.00,0.00,0.00,0.00,26.54,0.00,0.00,3.37,30.11,0.00,24.44,3.88,19.65,0.00,0.00,3.76
1,156.79,97.14,130.00,95.69,22.86,15.50,19.00,20.71,9.75,33.33,3.50,14.40,41.91,10.00,73.33,10.31,0.00,0.00,0.00,0.00,28.20,3.33,0.00,4.88,31.47,2.22,24.44,4.83,19.61,0.00,0.00,3.71
0,155.81,97.14,130.00,92.81,21.69,14.50,18.00,20.01,9.76,33.33,3.50,14.40,42.27,10.00,75.00,10.40,0.00,0.00,0.00,0.00,28.38,3.33,0.00,4.92,31.56,2.22,24.44,4.78,19.55,0.00,0.00,3.69
0,156.41,98.57,136.67,93.63,20.93,13.50,17.00,19.63,9.76,33.33,3.50,14.40,45.73,15.00,80.00,12.47,0.00,0.00,0.00,0.00,29.56,6.67,0.00,5.27,31.23,2.22,20.00,4.61,20.13,0.00,0.00,3.93
0,158.01,98.57,136.67,95.85,20.44,13.00,16.50,19.47,9.76,33.33,3.50,14.40,49.47,20.00,85.00,13.88,0.00,0.00,0.00,0.00,40.13,20.00,10.00,12.20,36.12,6.67,26.67,7.63,20.71,3.33,0.00,4.38
0,156.76,98.57,133.33,94.03,19.62,12.50,15.00,19.21,9.75,33.33,3.50,14.40,48.70,20.00,83.33,13.65,0.00,0.00,0.00,0.00,49.74,30.00,20.00,25.05,39.00,8.89,31.11,9.93,22.03,6.67,0.00,5.25
0,154.82,97.14,123.33,93.00,18.09,11.00,13.50,18.37,9.76,33.33,3.50,14.40,50.01,20.00,86.67,14.24,0.00,0.00,0.00,0.00,53.55,36.67,25.00,28.23,38.36,8.89,31.11,10.13,21.80,6.67,0.00,5.31
0,154.04,95.71,126.67,93.48,16.96,10.00,12.00,17.08,9.35,33.33,3.00,14.40,48.82,20.00,78.33,13.98,0.00,0.00,0.00,0.00,58.49,40.00,35.00,33.06,38.82,8.89,33.33,10.73,21.48,6.67,0.00,5.24
0,149.50,92.86,123.33,89.88,16.21,9.00,12.00,16.34,7.12,23.33,2.50,10.80,48.85,20.00,78.33,14.06,0.00,0.00,0.00,0.00,63.02,43.33,40.00,36.00,37.91,8.89,31.11,10.60,21.16,6.67,0.00,5.13
0,142.60,90.00,113.33,82.97,14.78,8.50,12.00,14.17,6.61,20.00,2.50,9.91,48.58,20.00,80.00,13.88,0.00,0.00,0.00,0.00,64.19,43.33,40.00,36.29,38.11,8.89,31.11,10.62,20.65,6.67,0.00,5.03
0,141.51,90.00,110.00,81.39,14.46,8.50,12.00,12.94,6.59,20.00,2.50,9.90,47.88,20.00,78.33,13.64,0.00,0.00,0.00,0.00,63.80,43.33,40.00,36.14,37.40,8.89,28.89,10.51,20.77,6.67,0.00,4.98
0,141.18,90.00,106.67,81.14,14.29,9.00,11.50,12.48,6.59,20.00,2.50,9.90,46.86,20.00,75.00,13.34,0.00,0.00,0.00,0.00,66.46,50.00,45.00,37.13,36.27,8.89,26.67,10.31,20.76,6.67,0.00,4.98
0,138.58,85.71,106.67,78.32,14.17,9.00,11.50,12.30,6.40,20.00,2.50,9.85,46.45,20.00,73.33,13.04,0.00,0.00,0.00,0.00,65.93,50.00,45.00,36.99,36.99,8.89,28.89,10.51,20.17,6.67,0.00,4.65
0,128.25,80.00,100.00,69.19,15.21,9.50,13.50,13.38,5.19,16.67,2.00,7.67,46.79,20.00,76.67,13.25,0.00,0.00,0.00,0.00,65.51,50.00,45.00,36.91,37.28,8.89,28.89,10.62,20.16,6.67,0.00,4.72
0,125.54,78.57,100.00,66.53,14.67,10.00,13.50,12.28,5.94,20.00,2.50,8.45,46.63,15.00,76.67,12.73,0.60,0.50,2.50,1.37,65.28,50.00,45.00,36.88,36.86,8.89,28.89,10.58,20.81,6.67,0.00,4.90
0,124.16,75.71,90.00,65.33,13.73,10.00,13.00,10.51,5.20,20.00,2.00,7.46,44.71,15.00,73.33,12.10,1.81,1.00,5.00,5.09,65.89,53.33,45.00,36.93,36.11,8.89,28.89,10.48,20.33,6.67,0.00,4.82
0,120.85,72.86,83.33,64.10,14.64,10.00,13.00,12.10,5.40,23.33,2.00,7.64,43.41,15.00,68.33,11.60,1.93,1.00,5.00,5.16,65.72,53.33,45.00,36.93,36.51,8.89,28.89,10.48,20.03,6.67,0.00,4.75
0,117.62,71.43,76.67,60.92,14.10,10.00,13.50,11.18,5.39,23.33,2.00,7.64,40.69,10.00,65.00,10.07,1.94,1.00,5.00,5.16,65.86,53.33,45.00,36.97,36.63,8.89,28.89,10.51,20.05,6.67,0.00,4.69
0,114.27,68.57,70.00,58.86,15.81,11.50,15.00,12.67,5.71,26.67,2.00,7.76,41.29,10.00,65.00,10.52,1.94,1.00,5.00,5.16,64.96,53.33,45.00,36.85,36.77,8.89,28.89,10.60,19.60,6.67,0.00,4.57
0,107.46,61.43,60.00,54.57,16.83,12.50,16.50,13.46,7.55,33.33,3.00,10.49,39.58,10.00,61.67,10.20,1.94,1.00,5.00,5.16,64.45,53.33,45.00,36.82,35.86,8.89,26.67,10.42,19.17,6.67,0.00,4.48
0,105.60,60.00,56.67,54.23,18.20,14.00,17.50,14.36,9.60,40.00,4.00,14.22,40.49,10.00,63.33,10.43,1.94,1.00,5.00,5.16,64.65,53.33,45.00,36.84,35.81,8.89,26.67,10.48,18.97,6.67,0.00,4.40
0,109.65,65.71,56.67,56.54,19.99,15.00,19.00,16.21,9.83,40.00,4.00,14.48,38.98,10.00,60.00,10.01,1.94,1.00,5.00,5.16,63.76,53.33,45.00,36.73,35.48,8.89,26.67,10.47,18.17,6.67,0.00,4.35
0,108.35,67.14,53.33,54.73,20.22,15.00,19.00,16.35,9.84,40.00,4.00,14.48,38.62,10.00,56.67,9.88,1.94,1.00,5.00,5.16,60.42,50.00,45.00,34.98,33.67,6.67,24.44,9.37,17.58,6.67,0.00,3.98
0,105.89,67.14,53.33,53.02,20.21,15.00,19.00,16.35,9.83,40.00,4.00,14.48,38.04,10.00,55.00,9.49,1.94,1.00,5.00,5.16,59.75,50.00,45.00,34.85,32.87,6.67,24.44,9.28,17.32,6.67,0.00,3.96
0,100.20,62.86,43.33,47.85,20.20,15.00,19.00,16.35,9.83,40.00,4.00,14.48,35.52,5.00,50.00,8.33,1.94,1.00,5.00,5.16,58.35,50.00,45.00,34.75,33.36,6.67,24.44,9.38,16.54,6.67,0.00,3.69
0,97.30,62.86,36.67,46.49,20.21,15.00,19.00,16.35,9.83,40.00,4.00,14.48,32.10,0.00,45.00,6.54,1.94,1.00,5.00,5.16,50.61,36.67,35.00,28.51,29.55,4.44,17.78,7.81,14.76,3.33,0.00,2.91
0,94.34,61.43,36.67,43.05,20.20,15.00,19.00,16.35,9.82,40.00,4.00,14.48,31.90,0.00,46.67,6.38,1.94,1.00,5.00,5.16,40.71,26.67,25.00,16.43,25.85,0.00,13.33,4.59,13.65,0.00,0.00,2.55
0,90.36,58.57,33.33,39.38,20.20,15.00,19.00,16.35,9.82,40.00,4.00,14.48,32.11,0.00,48.33,6.72,1.94,1.00,5.00,5.16,38.53,20.00,25.00,13.41,25.23,0.00,13.33,3.94,12.71,0.00,0.00,1.70
0,89.12,58.57,26.67,38.91,20.13,15.00,19.00,16.35,9.82,40.00,4.00,14.48,32.21,0.00,53.33,6.38,1.94,1.00,5.00,5.16,29.68,13.33,10.00,6.70,23.72,0.00,6.67,2.99,13.09,0.00,0.00,1.91
0,89.06,58.57,30.00,38.93,19.50,14.50,18.00,16.22,9.82,40.00,4.00,14.48,33.27,0.00,55.00,6.70,1.94,1.00,5.00,5.16,24.84,10.00,5.00,3.71,23.43,0.00,6.67,2.94,13.70,0.00,0.00,1.99
0,88.88,58.57,30.00,38.99,18.87,14.00,17.00,15.90,9.81,40.00,4.00,14.48,34.06,0.00,56.67,6.92,1.94,1.00,5.00,5.16,24.16,10.00,5.00,3.47,23.25,0.00,6.67,2.91,14.21,0.00,0.00,2.16
0,89.04,58.57,30.00,39.26,17.73,13.00,16.00,15.19,9.81,40.00,4.00,14.48,34.56,0.00,58.33,7.03,1.94,1.00,5.00,5.16,24.29,10.00,5.00,3.47,23.63,0.00,6.67,2.90,14.28,0.00,0.00,2.26
0,85.90,57.14,26.67,37.34,17.36,12.50,16.00,14.82,9.81,40.00,4.00,14.48,35.79,0.00,61.67,7.47,1.94,1.00,5.00,5.16,22.20,3.33,0.00,2.84,23.53,0.00,6.67,2.91,14.33,0.00,0.00,2.28
0,87.79,60.00,26.67,39.49,17.20,12.50,15.50,14.62,9.81,40.00,4.00,14.48,35.99,0.00,65.00,7.60,1.94,1.00,5.00,5.16,21.84,3.33,0.00,2.55,22.92,0.00,4.44,2.72,14.62,0.00,0.00,2.36
0,87.32,61.43,26.67,39.30,17.29,12.50,15.50,14.62,9.81,40.00,4.00,14.48,35.60,0.00,63.33,7.48,1.94,1.00,5.00,5.16,21.71,3.33,0.00,2.57,23.30,0.00,6.67,2.75,14.83,0.00,0.00,2.49
0,86.25,60.00,20.00,38.21,18.26,12.50,16.00,16.05,7.76,30.00,3.00,11.05,34.75,0.00,65.00,7.32,1.94,1.00,5.00,5.16,21.42,3.33,0.00,2.54,22.87,0.00,6.67,2.62,14.78,0.00,0.00,2.48
0,85.73,60.00,20.00,37.78,18.83,12.50,17.00,17.66,5.75,23.33,2.00,7.73,33.94,0.00,63.33,7.02,0.37,0.00,0.00,1.34,21.88,3.33,0.00,2.59,22.95,0.00,6.67,2.62,14.86,0.00,0.00,2.53
0,82.90,58.57,13.33,34.64,18.50,13.00,17.00,16.91,5.00,16.67,2.00,6.86,33.78,0.00,63.33,6.91,0.02,0.00,0.00,0.00,19.55,0.00,0.00,2.02,22.99,0.00,8.89,2.67,14.58,0.00,0.00,2.50
0,83.75,57.14,13.33,34.82,17.56,12.00,15.50,15.72,5.06,16.67,2.00,6.88,33.81,0.00,61.67,6.99,0.00,0.00,0.00,0.00,18.77,0.00,0.00,1.78,23.07,0.00,8.89,2.72,14.40,0.00,0.00,2.55
0,82.54,54.29,10.00,34.19,18.06,12.00,15.00,16.60,4.96,16.67,2.00,6.88,32.88,0.00,60.00,6.55,0.00,0.00,0.00,0.00,18.88,0.00,0.00,1.79,22.00,0.00,6.67,2.54,14.33,0.00,0.00,2.42
0,85.21,58.57,10.00,35.24,18.56,12.00,15.00,17.48,3.90,13.33,1.00,5.85,33.64,0.00,63.33,6.62,0.00,0.00,0.00,0.00,19.24,0.00,0.00,1.83,22.20,0.00,6.67,2.54,13.93,0.00,0.00,2.39
0,87.14,60.00,13.33,36.40,17.10,10.50,13.50,16.69,3.50,10.00,1.00,4.09,34.67,0.00,68.33,6.92,0.00,0.00,0.00,0.00,19.46,0.00,0.00,1.83,21.99,0.00,6.67,2.41,13.84,0.00,0.00,2.38
0,85.52,57.14,13.33,33.53,15.35,9.50,12.00,14.68,3.49,10.00,1.00,4.03,33.84,0.00,66.67,6.48,0.00,0.00,0.00,0.00,19.27,0.00,0.00,1.82,21.27,0.00,6.67,2.26,13.75,0.00,0.00,2.36
0,84.30,55.71,13.33,32.39,14.71,9.00,12.00,14.20,3.48,10.00,1.00,4.03,34.06,0.00,68.33,6.64,0.00,0.00,0.00,0.00,21.32,3.33,0.00,2.66,20.42,0.00,6.67,2.07,13.47,0.00,0.00,2.29
0,82.64,52.86,6.67,31.77,14.70,9.00,12.00,14.19,3.49,10.00,1.00,4.03,33.86,0.00,70.00,6.53,0.00,0.00,0.00,0.00,21.28,3.33,0.00,2.60,20.75,0.00,6.67,2.08,13.90,0.00,0.00,2.33
0,82.92,52.86,6.67,31.55,14.72,9.00,12.00,14.19,3.49,10.00,1.00,4.03,33.36,0.00,70.00,6.26,0.00,0.00,0.00,0.00,22.37,3.33,0.00,2.83,20.05,0.00,6.67,1.98,13.86,0.00,0.00,2.33
0,83.93,52.86,6.67,31.57,14.73,9.00,12.00,14.20,3.49,10.00,1.00,4.03,33.27,0.00,71.67,6.12,0.00,0.00,0.00,0.00,21.42,3.33,0.00,2.69,19.87,0.00,6.67,1.86,14.07,0.00,0.00,2.38
0,82.52,50.00,6.67,31.08,14.73,9.00,12.00,14.20,3.49,10.00,1.00,4.03,33.26,0.00,73.33,6.14,0.00,0.00,0.00,0.00,20.84,3.33,0.00,2.56,20.25,0.00,6.67,1.88,14.23,0.00,0.00,2.49
0,84.57,51.43,6.67,32.11,14.74,9.00,12.00,14.20,3.49,10.00,1.00,4.03,33.49,0.00,73.33,6.09,0.00,0.00,0.00,0.00,19.69,3.33,0.00,2.30,19.50,0.00,4.44,1.73,14.17,0.00,0.00,2.42
0,81.97,48.57,6.67,28.88,14.75,9.00,12.00,14.20,3.51,10.00,1.00,4.03,32.17,0.00,68.33,5.85,0.00,0.00,0.00,0.00,18.49,3.33,0.00,2.12,18.73,0.00,4.44,1.65,13.92,0.00,0.00,2.29
0,82.21,51.43,6.67,28.74,14.74,9.00,12.00,14.20,3.51,10.00,1.00,4.03,32.19,0.00,66.67,5.78,0.00,0.00,0.00,0.00,18.14,3.33,0.00,2.07,18.56,0.00,4.44,1.67,13.65,0.00,0.00,2.20
0,82.71,52.86,10.00,28.80,14.80,9.00,12.00,14.20,3.52,10.00,1.00,4.03,31.20,0.00,66.67,5.36,0.00,0.00,0.00,0.00,17.74,3.33,0.00,2.00,18.36,0.00,4.44,1.61,12.87,0.00,0.00,2.02
0,87.39,58.57,13.33,31.11,15.37,9.50,12.50,14.32,3.52,10.00,1.00,4.03,30.97,0.00,68.33,5.39,0.00,0.00,0.00,0.00,17.02,3.33,0.00,1.89,18.54,0.00,4.44,1.73,12.94,0.00,0.00,1.98
0,86.53,55.71,13.33,31.05,16.50,9.50,13.00,15.88,3.52,10.00,1.00,4.03,31.70,0.00,70.00,5.42,0.00,0.00,0.00,0.00,16.67,3.33,0.00,1.83,18.58,0.00,4.44,1.76,12.75,0.00,0.00,1.93
0,85.87,54.29,16.67,30.12,17.91,10.00,13.50,18.16,3.53,10.00,1.00,4.03,30.85,0.00,65.00,5.52,0.00,0.00,0.00,0.00,16.37,3.33,0.00,1.83,19.08,0.00,4.44,1.92,12.66,0.00,0.00,1.84
0,89.98,57.14,20.00,31.17,18.52,10.00,13.50,19.48,3.53,10.00,1.00,4.03,31.65,0.00,66.67,5.73,0.00,0.00,0.00,0.00,16.24,3.33,0.00,1.82,19.12,0.00,2.22,1.98,12.47,0.00,0.00,1.82
0,89.40,55.71,20.00,31.56,18.55,10.00,13.00,19.62,3.52,10.00,1.00,4.03,30.99,0.00,63.33,5.55,0.00,0.00,0.00,0.00,16.31,3.33,0.00,1.81,19.28,0.00,2.22,2.04,11.58,0.00,0.00,1.61
0,90.06,55.71,20.00,32.31,16.88,9.00,11.00,17.14,5.46,20.00,2.00,7.25,31.23,0.00,66.67,5.58,0.00,0.00,0.00,0.00,15.93,3.33,0.00,1.74,19.78,0.00,2.22,2.12,11.48,0.00,0.00,1.52
0,89.10,54.29,20.00,32.19,17.55,9.00,11.50,18.46,6.10,23.33,2.00,7.84,32.18,0.00,71.67,5.78,0.00,0.00,0.00,0.00,16.16,3.33,0.00,1.76,20.02,0.00,0.00,2.17,11.69,0.00,0.00,1.57
0,87.16,54.29,20.00,31.71,17.54,9.00,12.50,17.24,7.16,30.00,2.00,9.05,32.01,0.00,71.67,5.73,0.00,0.00,0.00,0.00,16.12,3.33,0.00,1.76,19.35,0.00,0.00,2.05,11.70,0.00,0.00,1.55
0,87.76,55.71,20.00,33.15,17.70,9.00,13.00,19.45,7.59,33.33,2.00,9.26,32.21,0.00,73.33,5.86,0.00,0.00,0.00,0.00,16.23,3.33,0.00,1.76,20.25,0.00,0.00,2.23,11.23,0.00,0.00,1.47
0,87.72,54.29,23.33,32.74,17.46,9.50,12.50,19.12,7.59,33.33,2.00,9.26,32.08,0.00,75.00,5.80,0.00,0.00,0.00,0.00,15.81,3.33,0.00,1.73,19.96,0.00,0.00,2.22,10.97,0.00,0.00,1.38
0,86.33,54.29,20.00,30.72,18.37,10.50,13.50,19.74,7.23,33.33,1.50,9.12,31.34,0.00,73.33,5.49,0.00,0.00,0.00,0.00,15.70,3.33,0.00,1.72,19.69,0.00,0.00,2.12,11.36,0.00,0.00,1.43
0,88.55,57.14,20.00,32.25,19.73,11.50,15.00,20.50,7.50,36.67,1.50,7.48,31.89,0.00,75.00,5.70,0.00,0.00,0.00,0.00,16.09,3.33,0.00,1.73,20.02,0.00,0.00,2.14,11.78,0.00,0.00,1.49
0,89.87,55.71,20.00,34.69,21.88,13.00,17.00,22.14,8.32,40.00,2.00,9.86,32.59,0.00,75.00,5.97,0.00,0.00,0.00,0.00,13.24,0.00,0.00,0.85,20.20,0.00,0.00,2.24,12.16,0.00,0.00,1.53
0,91.93,57.14,23.33,36.45,23.94,14.00,19.00,25.04,8.35,40.00,2.00,9.86,32.12,0.00,73.33,5.80,0.00,0.00,0.00,0.00,13.38,0.00,0.00,0.85,20.51,0.00,0.00,2.29,11.91,0.00,0.00,1.50
0,95.34,60.00,30.00,38.11,24.65,14.50,19.00,25.66,8.37,40.00,2.00,9.86,32.75,0.00,73.33,6.02,0.00,0.00,0.00,0.00,12.09,0.00,0.00,0.63,20.79,0.00,0.00,2.36,11.88,0.00,0.00,1.51
0,96.11,61.43,30.00,38.97,24.65,14.50,19.00,25.66,8.36,40.00,2.00,9.86,32.17,0.00,70.00,5.93,0.00,0.00,0.00,0.00,11.89,0.00,0.00,0.62,20.72,0.00,0.00,2.36,12.00,0.00,0.00,1.50
0,97.17,61.43,36.67,39.58,24.65,14.50,19.00,25.66,8.36,40.00,2.00,9.86,31.79,0.00,66.67,5.77,0.00,0.00,0.00,0.00,12.13,0.00,0.00,0.63,20.82,0.00,0.00,2.37,12.17,0.00,0.00,1.52
0,94.88,61.43,36.67,38.24,24.63,14.50,19.00,25.66,8.36,40.00,2.00,9.86,31.36,0.00,66.67,5.46,0.00,0.00,0.00,0.00,12.57,0.00,0.00,0.76,21.64,0.00,0.00,2.57,12.34,0.00,0.00,1.49
0,94.29,60.00,36.67,38.16,24.62,14.50,19.00,25.66,8.35,40.00,2.00,9.86,32.39,0.00,70.00,5.70,0.00,0.00,0.00,0.00,12.91,0.00,0.00,0.81,22.17,0.00,0.00,2.72,11.99,0.00,0.00,1.45
0,97.08,60.00,40.00,40.20,24.62,14.50,19.00,25.66,8.34,40.00,2.00,9.86,32.84,0.00,71.67,5.98,0.00,0.00,0.00,0.00,13.83,0.00,0.00,0.92,22.54,0.00,0.00,2.79,12.09,0.00,0.00,1.51
0,94.95,55.71,36.67,39.00,24.62,14.50,19.00,25.66,8.32,40.00,2.00,9.86,33.40,0.00,71.67,6.47,0.00,0.00,0.00,0.00,14.42,0.00,0.00,1.01,23.15,0.00,0.00,2.90,13.19,0.00,0.00,1.85
0,90.70,51.43,33.33,36.55,24.30,14.50,19.00,25.60,8.33,40.00,2.00,9.86,33.38,0.00,70.00,6.40,0.00,0.00,0.00,0.00,14.84,0.00,0.00,1.04,22.98,0.00,0.00,2.86,13.30,0.00,0.00,1.99
0,91.43,51.43,33.33,36.72,23.37,14.00,17.50,25.40,8.33,40.00,2.00,9.86,33.49,0.00,71.67,6.42,0.00,0.00,0.00,0.00,14.89,0.00,0.00,1.06,22.94,0.00,0.00,2.84,13.61,0.00,0.00,2.07
0,95.00,54.29,36.67,38.90,20.57,12.50,15.50,22.50,8.33,40.00,2.00,9.86,33.15,0.00,70.00,6.19,0.00,0.00,0.00,0.00,15.49,0.00,0.00,1.12,23.22,0.00,0.00,2.99,14.24,0.00,0.00,2.21
0,90.41,48.57,30.00,37.03,18.43,11.50,14.00,18.96,8.32,40.00,2.00,9.86,31.84,0.00,66.67,5.70,0.00,0.00,0.00,0.00,15.25,0.00,0.00,1.12,22.34,0.00,0.00,2.83,13.78,0.00,0.00,2.07
0,90.09,47.14,30.00,36.96,16.08,10.00,12.50,16.08,8.33,40.00,2.00,9.86,32.60,0.00,68.33,5.99,0.00,0.00,0.00,0.00,15.28,0.00,0.00,1.13,22.38,0.00,0.00,2.91,14.03,0.00,0.00,2.13
0,88.85,47.14,30.00,36.72,16.12,10.50,12.50,15.91,6.84,33.33,1.00,7.25,32.80,0.00,68.33,6.17,0.00,0.00,0.00,0.00,15.21,0.00,0.00,1.12,21.86,0.00,0.00,2.85,14.61,0.00,0.00,2.22
0,91.10,50.00,30.00,40.54,14.59,10.00,11.50,13.77,5.78,26.67,1.00,6.08,32.70,0.00,65.00,6.15,0.00,0.00,0.00,0.00,14.88,0.00,0.00,1.10,21.80,0.00,0.00,2.81,14.91,0.00,0.00,2.33
0,92.35,50.00,33.33,40.90,13.56,9.50,9.50,12.97,4.63,20.00,1.00,4.91,33.46,0.00,71.67,6.31,0.00,0.00,0.00,0.00,14.90,0.00,0.00,1.09,22.70,0.00,2.22,2.91,14.83,0.00,0.00,2.33
0,91.98,51.43,33.33,40.17,12.45,9.50,9.50,9.78,4.13,16.67,1.00,4.61,32.76,0.00,66.67,6.04,0.00,0.00,0.00,0.00,15.17,0.00,0.00,1.13,22.93,0.00,2.22,2.95,15.35,0.00,0.00,2.48
0,90.40,51.43,30.00,37.43,10.87,8.50,8.50,7.91,4.10,16.67,1.00,4.61,32.33,0.00,63.33,5.96,0.00,0.00,0.00,0.00,15.88,0.00,0.00,1.22,22.78,0.00,2.22,2.89,15.93,0.00,0.00,2.54
0,88.89,50.00,30.00,37.31,9.61,7.00,7.50,7.09,3.55,13.33,1.00,4.34,33.43,0.00,65.00,6.33,0.00,0.00,0.00,0.00,16.28,0.00,0.00,1.28,23.33,0.00,2.22,2.93,15.75,0.00,0.00,2.57
0,88.04,48.57,30.00,37.27,9.59,7.00,7.50,7.05,2.64,6.67,1.00,3.61,33.16,0.00,63.33,6.29,0.00,0.00,0.00,0.00,15.97,0.00,0.00,1.27,22.92,0.00,2.22,2.92,15.72,0.00,0.00,2.58
0,84.91,45.71,30.00,33.55,9.07,7.00,6.50,6.38,0.54,0.00,0.00,0.02,33.51,0.00,63.33,6.49,0.00,0.00,0.00,0.00,16.07,0.00,0.00,1.30,22.72,0.00,2.22,2.83,15.72,0.00,0.00,2.63
0,82.65,45.71,26.67,32.79,8.59,7.00,6.00,5.57,1.73,6.67,0.50,1.35,33.58,0.00,63.33,6.53,0.00,0.00,0.00,0.00,15.91,0.00,0.00,1.29,23.30,0.00,2.22,2.82,15.71,0.00,0.00,2.63
0,80.24,45.71,23.33,30.65,9.12,7.50,7.50,6.09,2.22,10.00,0.50,1.65,33.72,0.00,63.33,6.53,0.00,0.00,0.00,0.00,15.70,0.00,0.00,1.28,23.26,0.00,2.22,2.89,15.90,0.00,0.00,2.70
0,80.50,45.71,23.33,29.97,11.87,8.50,9.00,9.66,2.38,10.00,0.50,1.68,33.79,0.00,63.33,6.49,0.00,0.00,0.00,0.00,16.17,0.00,0.00,1.29,22.78,0.00,2.22,2.81,16.01,0.00,0.00,2.74
0,79.29,45.71,16.67,29.81,13.46,9.50,10.00,12.34,2.38,10.00,0.50,1.68,33.30,0.00,60.00,6.44,0.00,0.00,0.00,0.00,16.80,0.00,0.00,1.39,23.41,0.00,2.22,2.96,15.65,0.00,0.00,2.65
0,80.19,44.29,16.67,29.58,14.50,11.00,11.00,12.99,2.38,10.00,0.50,1.68,32.95,0.00,56.67,6.47,0.00,0.00,0.00,0.00,16.22,0.00,0.00,1.29,22.53,0.00,2.22,2.72,15.44,0.00,0.00,2.64
0,82.01,48.57,23.33,31.05,16.26,12.00,12.50,14.74,3.71,16.67,0.50,2.67,32.05,0.00,53.33,6.18,0.00,0.00,0.00,0.00,16.10,0.00,0.00,1.27,22.14,0.00,2.22,2.57,15.59,0.00,0.00,2.67
0,80.68,50.00,20.00,29.29,17.63,13.00,14.50,15.55,6.16,26.67,1.50,5.69,31.87,0.00,53.33,6.02,0.00,0.00,0.00,0.00,15.67,0.00,0.00,1.18,22.90,0.00,2.22,2.64,15.55,0.00,0.00,2.63
0,80.91,51.43,16.67,29.48,19.75,14.50,16.50,17.21,7.02,30.00,2.00,8.18,30.94,0.00,50.00,5.57,0.00,0.00,0.00,0.00,15.28,0.00,0.00,1.14,22.25,0.00,2.22,2.60,14.40,0.00,0.00,2.35
0,82.48,52.86,16.67,29.54,21.53,15.50,18.50,19.46,7.05,30.00,2.00,8.18,31.99,0.00,51.67,5.87,0.00,0.00,0.00,0.00,15.05,0.00,0.00,1.08,22.39,0.00,2.22,2.55,14.56,0.00,0.00,2.29
0,83.93,54.29,20.00,29.86,22.10,16.00,18.50,19.89,7.05,30.00,2.00,8.18,31.16,0.00,46.67,5.72,0.00,0.00,0.00,0.00,14.85,0.00,0.00,1.06,22.48,0.00,2.22,2.52,14.11,0.00,0.00,2.20
0,84.52,55.71,23.33,30.38,22.10,16.00,18.50,19.89,7.06,30.00,2.00,8.18,31.73,0.00,48.33,5.89,0.00,0.00,0.00,0.00,14.64,0.00,0.00,1.02,22.13,0.00,2.22,2.35,13.79,0.00,0.00,2.09
0,83.16,58.57,20.00,28.67,22.09,16.00,18.50,19.89,7.06,30.00,2.00,8.18,32.69,0.00,53.33,6.03,0.00,0.00,0.00,0.00,14.72,0.00,0.00,0.99,22.08,0.00,2.22,2.27,13.55,0.00,0.00,2.03
0,81.58,57.14,20.00,27.63,21.98,16.00,18.50,19.88,7.06,30.00,2.00,8.18,32.28,0.00,55.00,5.76,0.00,0.00,0.00,0.00,14.64,0.00,0.00,0.98,21.82,0.00,2.22,2.04,14.30,0.00,0.00,2.27
0,82.62,57.14,20.00,27.09,21.70,15.50,18.50,19.82,7.05,30.00,2.00,8.18,31.32,0.00,50.00,5.39,0.00,0.00,0.00,0.00,14.65,0.00,0.00,0.98,21.76,0.00,2.22,2.02,13.98,0.00,0.00,2.20
0,79.03,52.86,20.00,23.24,21.15,15.00,18.00,19.67,7.05,30.00,2.00,8.18,31.36,0.00,48.33,5.38,0.00,0.00,0.00,0.00,14.87,0.00,0.00,1.03,22.02,0.00,2.22,2.09,14.00,0.00,0.00,2.30
0,77.57,51.43,16.67,22.43,20.81,14.50,18.00,19.58,7.03,30.00,2.00,8.18,31.21,0.00,46.67,5.43,0.00,0.00,0.00,0.00,14.66,0.00,0.00,1.01,21.16,0.00,0.00,1.92,13.79,0.00,0.00,2.24
0,75.66,48.57,16.67,21.07,20.34,14.00,17.50,19.45,7.03,30.00,2.00,8.18,31.17,0.00,48.33,5.40,0.00,0.00,0.00,0.00,14.58,0.00,0.00,0.98,20.90,0.00,2.22,1.90,13.44,0.00,0.00,2.06
0,75.73,48.57,16.67,21.83,19.23,13.00,16.50,18.78,7.03,30.00,2.00,8.18,31.13,0.00,50.00,5.38,0.00,0.00,0.00,0.00,14.15,0.00,0.00,0.92,20.36,0.00,2.22,1.84,13.06,0.00,0.00,2.06
0,75.90,48.57,16.67,21.91,19.21,13.00,16.50,18.78,7.02,30.00,2.00,8.18,29.59,0.00,45.00,5.01,0.00,0.00,0.00,0.00,13.84,0.00,0.00,0.89,20.22,0.00,2.22,1.80,13.25,0.00,0.00,2.13
0,76.10,47.14,16.67,22.50,18.35,12.50,15.50,18.19,7.02,30.00,2.00,8.18,29.21,0.00,43.33,4.86,0.00,0.00,0.00,0.00,14.27,0.00,0.00,0.98,20.78,0.00,2.22,1.87,12.80,0.00,0.00,2.05
0,74.58,47.14,16.67,21.94,17.26,11.00,14.50,17.57,7.02,30.00,2.00,8.18,28.37,0.00,45.00,4.45,0.00,0.00,0.00,0.00,14.17,0.00,0.00,0.96,20.66,0.00,2.22,1.86,12.91,0.00,0.00,2.08
0,74.12,45.71,16.67,21.10,16.42,10.00,13.50,16.88,6.06,26.67,1.50,7.09,28.37,0.00,46.67,4.39,0.00,0.00,0.00,0.00,14.33,0.00,0.00,0.98,20.36,0.00,2.22,1.84,12.80,0.00,0.00,2.05
0,75.21,44.29,16.67,21.22,15.24,10.00,12.50,14.92,5.32,20.00,1.50,6.56,27.97,0.00,45.00,4.29,0.00,0.00,0.00,0.00,15.07,0.00,0.00,1.02,19.97,0.00,2.22,1.72,12.63,0.00,0.00,1.97
0,74.50,42.86,16.67,20.93,13.99,10.00,12.00,11.82,5.12,20.00,1.50,6.51,28.52,0.00,48.33,4.28,0.00,0.00,0.00,0.00,14.60,0.00,0.00,0.99,20.36,0.00,2.22,1.80,12.75,0.00,0.00,2.01
0,72.00,40.00,13.33,19.76,14.02,10.00,13.50,11.03,5.11,20.00,1.50,6.51,29.24,0.00,55.00,4.42,0.00,0.00,0.00,0.00,14.11,0.00,0.00,0.91,19.72,0.00,2.22,1.62,13.01,0.00,0.00,2.10
0,71.93,40.00,13.33,20.35,13.61,10.00,13.50,10.81,5.11,20.00,1.50,6.51,29.48,0.00,56.67,4.31,0.00,0.00,0.00,0.00,13.94,0.00,0.00,0.88,19.76,0.00,2.22,1.65,12.70,0.00,0.00,2.04
0,68.46,35.71,6.67,18.78,12.77,10.00,13.00,9.62,4.08,13.33,1.50,5.59,29.92,0.00,58.33,4.37,0.00,0.00,0.00,0.00,14.13,0.00,0.00,0.91,20.00,0.00,2.22,1.67,13.18,0.00,0.00,2.17
0,69.49,37.14,10.00,19.68,12.98,10.00,12.50,9.84,2.60,6.67,1.00,3.70,30.48,0.00,60.00,4.51,0.00,0.00,0.00,0.00,13.71,0.00,0.00,0.89,19.72,0.00,2.22,1.63,13.21,0.00,0.00,2.24
0,68.65,35.71,10.00,20.01,12.81,10.00,12.00,9.61,0.50,0.00,0.00,0.02,30.81,0.00,63.33,4.76,0.00,0.00,0.00,0.00,13.86,0.00,0.00,0.92,20.03,0.00,2.22,1.69,13.12,0.00,0.00,2.18
0,69.14,35.71,13.33,20.11,12.96,10.00,12.00,10.06,1.28,10.00,0.00,0.62,29.64,0.00,60.00,4.54,0.00,0.00,0.00,0.00,13.58,0.00,0.00,0.90,19.98,0.00,2.22,1.75,13.00,0.00,0.00,2.14
0,68.04,35.71,10.00,20.18,13.04,10.00,13.50,9.78,1.79,13.33,0.00,0.89,30.22,0.00,65.00,4.43,0.00,0.00,0.00,0.00,13.48,0.00,0.00,0.90,19.78,0.00,2.22,1.74,13.04,0.00,0.00,2.16
0,66.03,34.29,6.67,19.39,15.63,11.50,15.00,12.92,1.81,13.33,0.00,0.89,29.74,0.00,63.33,4.40,0.00,0.00,0.00,0.00,13.00,0.00,0.00,0.87,20.10,0.00,2.22,1.83,13.44,0.00,0.00,2.29
0,66.80,34.29,10.00,19.98,17.22,13.00,16.50,15.35,1.81,13.33,0.00,0.89,28.78,0.00,58.33,4.15,0.00,0.00,0.00,0.00,13.34,0.00,0.00,0.90,20.19,0.00,2.22,1.86,13.67,0.00,0.00,2.37
0,66.49,31.43,10.00,19.84,18.41,14.00,17.50,16.16,1.81,13.33,0.00,0.89,29.22,0.00,58.33,4.49,0.00,0.00,0.00,0.00,13.16,0.00,0.00,0.89,20.41,0.00,2.22,1.89,12.91,0.00,0.00,2.14
0,65.86,31.43,10.00,19.97,19.52,15.00,18.50,16.89,3.68,20.00,0.50,2.99,29.37,0.00,58.33,4.61,0.00,0.00,0.00,0.00,13.31,0.00,0.00,0.87,20.51,0.00,2.22,1.93,12.94,0.00,0.00,2.10
0,65.48,32.86,10.00,19.84,21.89,16.00,20.50,19.29,6.34,30.00,1.50,6.74,29.28,0.00,61.67,4.70,0.00,0.00,0.00,0.00,12.80,0.00,0.00,0.82,21.00,0.00,2.22,1.99,13.02,0.00,0.00,2.12
0,65.95,32.86,10.00,20.79,24.74,17.50,22.50,22.44,7.20,33.33,2.00,9.25,29.60,0.00,60.00,4.80,0.00,0.00,0.00,0.00,12.72,0.00,0.00,0.81,20.84,0.00,2.22,1.98,12.59,0.00,0.00,2.02
0,68.40,35.71,10.00,21.84,26.92,18.50,24.50,25.83,7.23,33.33,2.00,9.25,30.13,0.00,63.33,4.91,0.00,0.00,0.00,0.00,12.47,0.00,0.00,0.80,20.27,0.00,0.00,1.89,12.80,0.00,0.00,2.08
0,67.76,34.29,10.00,20.88,27.62,19.00,24.50,26.46,7.24,33.33,2.00,9.25,30.75,0.00,63.33,5.15,0.00,0.00,0.00,0.00,12.17,0.00,0.00,0.74,20.29,0.00,0.00,1.90,13.43,0.00,0.00,2.30
0,67.76,35.71,10.00,21.65,27.64,19.00,24.50,26.46,7.24,33.33,2.00,9.25,31.53,0.00,66.67,5.32,0.00,0.00,0.00,0.00,12.28,0.00,0.00,0.76,19.74,0.00,0.00,1.83,13.51,0.00,0.00,2.28
0,69.28,37.14,13.33,22.00,27.64,19.00,24.50,26.46,7.23,33.33,2.00,9.25,31.44,0.00,68.33,5.31,0.00,0.00,0.00,0.00,11.53,0.00,0.00,0.64,20.31,0.00,0.00,1.88,13.40,0.00,0.00,2.17
0,69.91,37.14,13.33,22.61,27.63,19.00,24.50,26.46,7.23,33.33,2.00,9.25,31.65,0.00,66.67,5.38,0.00,0.00,0.00,0.00,11.61,0.00,0.00,0.60,20.43,0.00,0.00,1.95,13.55,0.00,0.00,2.18
0,70.71,40.00,13.33,22.57,27.41,19.00,24.50,26.42,7.26,33.33,2.00,9.25,31.59,0.00,65.00,5.40,0.00,0.00,0.00,0.00,11.53,0.00,0.00,0.60,20.36,0.00,0.00,1.96,13.64,0.00,0.00,2.19
0,70.95,41.43,13.33,23.56,26.51,18.00,23.50,25.99,7.26,33.33,2.00,9.26,33.13,0.00,68.33,5.86,0.00,0.00,0.00,0.00,12.05,0.00,0.00,0.63,20.92,0.00,0.00,2.02,13.64,0.00,0.00,2.18
0,69.68,40.00,13.33,23.27,25.55,17.00,22.50,25.44,7.25,33.33,2.00,9.26,32.71,0.00,66.67,5.81,0.00,0.00,0.00,0.00,11.88,0.00,0.00,0.61,20.75,0.00,0.00,1.97,13.57,0.00,0.00,2.10
0,68.54,40.00,13.33,22.11,23.77,16.00,20.50,23.65,7.26,33.33,2.00,9.26,32.27,0.00,61.67,5.88,0.00,0.00,0.00,0.00,12.04,0.00,0.00,0.62,20.78,0.00,0.00,1.94,13.55,0.00,0.00,2.05
0,70.31,41.43,13.33,23.34,22.64,15.00,19.00,22.91,7.26,33.33,2.00,9.26,32.06,0.00,63.33,5.84,0.00,0.00,0.00,0.00,12.39,0.00,0.00,0.64,20.20,0.00,0.00,1.88,13.86,0.00,0.00,2.09
0,72.78,45.71,13.33,24.26,21.49,13.50,17.50,22.42,7.25,33.33,2.00,9.26,31.68,0.00,61.67,5.73,0.00,0.00,0.00,0.00,12.24,0.00,0.00,0.60,20.09,0.00,0.00,1.89,13.65,0.00,0.00,1.99
0,74.27,47.14,13.33,24.94,20.17,12.50,16.50,21.24,7.26,33.33,2.00,9.26,31.98,0.00,63.33,5.83,0.00,0.00,0.00,0.00,12.52,0.00,0.00,0.60,20.34,0.00,0.00,1.90,13.23,0.00,0.00,1.89
0,74.78,48.57,16.67,24.32,18.64,11.00,15.00,20.07,7.27,33.33,2.00,9.26,32.05,0.00,65.00,5.67,0.00,0.00,0.00,0.00,12.73,0.00,0.00,0.61,20.30,0.00,2.22,1.89,13.84,0.00,0.00,2.02
0,75.28,47.14,13.33,24.91,16.97,10.00,13.50,18.25,6.62,26.67,2.00,8.76,33.21,0.00,68.33,6.07,0.00,0.00,0.00,0.00,12.76,0.00,0.00,0.61,20.35,0.00,2.22,1.84,13.55,0.00,0.00,1.90
0,75.33,48.57,13.33,25.05,16.20,9.50,12.00,17.32,5.95,20.00,2.00,8.39,33.29,0.00,66.67,6.14,0.00,0.00,0.00,0.00,12.73,0.00,0.00,0.60,20.09,0.00,2.22,1.78,13.45,0.00,0.00,1.87
0,73.09,44.29,13.33,23.44,14.56,9.00,10.50,14.32,5.88,20.00,2.00,8.37,32.93,0.00,65.00,6.02,0.00,0.00,0.00,0.00,12.57,0.00,0.00,0.59,19.85,0.00,2.22,1.72,13.28,0.00,0.00,1.80
0,74.06,45.71,13.33,23.60,13.24,8.50,10.50,12.25,5.89,20.00,2.00,8.37,33.15,0.00,68.33,6.05,0.00,0.00,0.00,0.00,12.34,0.00,0.00,0.58,19.80,0.00,2.22,1.75,13.15,0.00,0.00,1.66
0,75.39,48.57,13.33,24.19,13.40,8.00,10.50,12.38,5.89,20.00,2.00,8.37,32.29,0.00,65.00,5.73,0.00,0.00,0.00,0.00,12.50,0.00,0.00,0.58,19.77,0.00,2.22,1.79,13.12,0.00,0.00,1.64
0,77.26,51.43,16.67,25.03,13.70,8.00,11.00,12.82,4.39,13.33,1.50,6.41,32.62,0.00,65.00,5.75,0.00,0.00,0.00,0.00,12.58,0.00,0.00,0.58,20.17,0.00,4.44,1.84,13.28,0.00,0.00,1.69
0,80.27,55.71,16.67,25.85,12.87,8.00,11.00,11.36,2.63,6.67,1.00,3.75,32.26,0.00,61.67,5.63,0.00,0.00,0.00,0.00,12.89,0.00,0.00,0.59,20.43,0.00,4.44,1.86,13.02,0.00,0.00,1.61
0,80.94,57.14,16.67,26.10,12.29,8.00,10.50,10.13,0.53,0.00,0.00,0.02,32.56,0.00,63.33,5.73,0.00,0.00,0.00,0.00,12.93,0.00,0.00,0.59,19.99,0.00,4.44,1.80,13.01,0.00,0.00,1.58
0,79.97,55.71,20.00,26.25,11.83,8.00,10.50,9.14,2.40,6.67,1.00,3.23,31.83,0.00,60.00,5.63,0.00,0.00,0.00,0.00,13.05,0.00,0.00,0.60,20.14,0.00,4.44,1.84,13.22,0.00,0.00,1.61
0,78.68,54.29,20.00,25.81,12.70,8.00,12.00,11.27,2.64,6.67,1.00,3.48,31.18,0.00,56.67,5.59,0.00,0.00,0.00,0.00,13.28,0.00,0.00,0.62,20.48,0.00,4.44,1.90,12.63,0.00,0.00,1.40
0,78.67,51.43,20.00,25.46,15.40,9.50,13.00,14.77,2.91,6.67,1.00,3.55,31.80,0.00,60.00,5.60,0.00,0.00,0.00,0.00,13.32,0.00,0.00,0.63,21.00,0.00,4.44,1.99,13.12,0.00,0.00,1.64
0,75.37,47.14,16.67,23.78,16.91,11.00,14.50,17.07,2.91,6.67,1.00,3.55,32.40,0.00,61.67,5.81,0.00,0.00,0.00,0.00,13.47,0.00,0.00,0.66,21.67,0.00,6.67,2.22,13.03,0.00,0.00,1.65
0,75.56,48.57,16.67,23.51,18.01,12.00,15.50,17.77,2.92,6.67,1.00,3.55,33.51,0.00,63.33,6.06,0.00,0.00,0.00,0.00,13.29,0.00,0.00,0.67,21.74,0.00,6.67,2.17,12.83,0.00,0.00,1.60
0,76.78,47.14,16.67,24.23,19.77,13.00,17.00,19.52,3.95,13.33,1.00,4.07,32.28,0.00,58.33,5.83,0.00,0.00,0.00,0.00,13.65,0.00,0.00,0.70,21.54,0.00,6.67,2.13,12.99,0.00,0.00,1.68
0,76.57,45.71,20.00,26.09,21.46,14.00,19.00,20.83,6.34,23.33,2.00,7.00,30.63,0.00,55.00,5.32,0.00,0.00,0.00,0.00,13.09,0.00,0.00,0.68,21.35,0.00,6.67,2.16,12.75,0.00,0.00,1.66
0,78.61,50.00,20.00,26.48,23.90,15.50,21.00,22.86,7.21,26.67,2.50,9.47,32.16,0.00,61.67,5.68,0.00,0.00,0.00,0.00,13.14,0.00,0.00,0.70,21.66,0.00,6.67,2.25,12.79,0.00,0.00,1.69
0,81.63,54.29,23.33,28.04,24.75,16.00,21.50,24.47,7.24,26.67,2.50,9.48,31.32,0.00,60.00,5.46,0.00,0.00,0.00,0.00,13.21,0.00,0.00,0.72,22.33,0.00,6.67,2.41,12.63,0.00,0.00,1.65
0,79.63,52.86,23.33,27.59,24.77,16.00,21.50,24.47,7.25,26.67,2.50,9.48,31.52,0.00,58.33,5.66,0.00,0.00,0.00,0.00,12.79,0.00,0.00,0.71,22.81,0.00,8.89,2.52,12.78,0.00,0.00,1.66
0,81.50,51.43,26.67,29.62,24.76,16.00,21.50,24.47,7.25,26.67,2.50,9.48,32.21,0.00,63.33,5.82,0.00,0.00,0.00,0.00,12.91,0.00,0.00,0.71,23.69,0.00,8.89,2.64,12.95,0.00,0.00,1.76
0,80.31,48.57,23.33,29.79,24.76,16.00,21.50,24.47,7.23,26.67,2.50,9.48,32.74,0.00,63.33,6.15,0.00,0.00,0.00,0.00,12.43,0.00,0.00,0.69,23.19,0.00,8.89,2.61,12.79,0.00,0.00,1.74
0,79.64,45.71,20.00,30.16,24.76,16.00,21.50,24.47,7.24,26.67,2.50,9.48,32.76,0.00,58.33,6.34,0.00,0.00,0.00,0.00,12.08,0.00,0.00,0.68,22.80,0.00,6.67,2.56,12.63,0.00,0.00,1.69
0,79.44,47.14,20.00,28.89,24.69,16.00,21.50,24.47,7.23,26.67,2.50,9.48,31.42,0.00,55.00,5.94,0.00,0.00,0.00,0.00,12.74,0.00,0.00,0.77,23.34,0.00,8.89,2.73,12.37,0.00,0.00,1.67
0,80.28,45.71,20.00,29.65,24.13,15.50,21.00,24.30,7.24,26.67,2.50,9.48,31.44,0.00,53.33,5.92,0.00,0.00,0.00,0.00,13.08,0.00,0.00,0.84,23.53,0.00,8.89,2.81,12.58,0.00,0.00,1.69
0,82.15,48.57,20.00,31.01,23.60,15.00,20.50,24.12,7.26,26.67,2.50,9.48,30.97,0.00,51.67,5.98,0.00,0.00,0.00,0.00,13.43,0.00,0.00,0.88,23.93,0.00,8.89,2.90,12.58,0.00,0.00,1.70
0,81.12,47.14,16.67,30.46,22.90,14.50,19.50,23.83,7.27,26.67,2.50,9.48,30.55,0.00,48.33,5.92,0.00,0.00,0.00,0.00,13.75,0.00,0.00,0.90,24.40,0.00,8.89,2.90,12.84,0.00,0.00,1.74
0,78.69,42.86,16.67,29.79,22.11,14.00,18.50,23.67,7.26,26.67,2.50,9.48,30.74,0.00,48.33,5.96,0.00,0.00,0.00,0.00,13.58,0.00,0.00,0.90,24.11,0.00,8.89,2.81,12.86,0.00,0.00,1.79
0,78.89,44.29,13.33,29.76,20.05,12.50,16.50,21.88,7.26,26.67,2.50,9.48,31.21,0.00,50.00,5.96,0.00,0.00,0.00,0.00,13.33,0.00,0.00,0.88,23.46,0.00,6.67,2.74,12.58,0.00,0.00,1.79
0,78.59,41.43,16.67,30.12,18.77,11.50,15.00,20.60,7.26,26.67,2.50,9.48,31.68,0.00,56.67,6.11,0.00,0.00,0.00,0.00,13.68,0.00,0.00,0.93,23.45,0.00,6.67,2.75,12.61,0.00,0.00,1.78
0,78.18,38.57,16.67,29.55,17.43,10.50,14.00,19.27,7.26,26.67,2.50,9.48,31.88,0.00,56.67,6.22,0.00,0.00,0.00,0.00,14.17,0.00,0.00,1.01,23.71,0.00,6.67,2.78,12.90,0.00,0.00,1.80
0,79.60,40.00,20.00,30.59,16.21,9.50,12.50,18.03,5.76,23.33,1.50,6.87,32.29,0.00,58.33,6.35,0.00,0.00,0.00,0.00,14.31,0.00,0.00,1.04,23.88,0.00,6.67,2.77,12.84,0.00,0.00,1.79
0,80.82,40.00,20.00,30.72,13.89,9.00,10.50,14.23,5.11,20.00,1.50,6.01,32.72,0.00,60.00,6.40,0.00,0.00,0.00,0.00,14.15,0.00,0.00,1.04,23.80,0.00,6.67,2.74,12.90,0.00,0.00,1.83
0,79.99,40.00,20.00,30.39,12.33,8.50,9.50,10.66,4.85,20.00,1.50,5.95,31.60,0.00,55.00,6.21,0.00,0.00,0.00,0.00,13.88,0.00,0.00,1.04,23.32,0.00,6.67,2.66,12.09,0.00,0.00,1.60
0,80.38,40.00,20.00,30.49,11.33,8.50,9.50,8.69,4.83,20.00,1.50,5.95,30.72,0.00,51.67,5.99,0.00,0.00,0.00,0.00,13.81,0.00,0.00,1.02,22.49,0.00,6.67,2.49,12.43,0.00,0.00,1.68
0,80.52,40.00,23.33,31.14,11.98,8.50,10.50,9.77,4.83,20.00,1.50,5.95,30.04,0.00,51.67,5.66,0.00,0.00,0.00,0.00,13.88,0.00,0.00,1.01,22.31,0.00,6.67,2.53,12.57,0.00,0.00,1.71
0,81.54,41.43,23.33,30.69,12.52,8.50,10.50,10.86,4.08,13.33,1.50,5.46,29.73,0.00,51.67,5.54,0.00,0.00,0.00,0.00,13.63,0.00,0.00,0.98,22.95,0.00,8.89,2.66,12.32,0.00,0.00,1.68
0,79.71,41.43,23.33,28.37,12.56,8.50,10.50,10.98,2.64,6.67,1.00,3.69,31.03,0.00,55.00,5.99,0.00,0.00,0.00,0.00,13.95,0.00,0.00,0.99,22.70,0.00,8.89,2.59,12.71,0.00,0.00,1.70
0,80.12,40.00,30.00,29.02,12.89,8.50,10.00,11.58,2.43,10.00,1.00,3.13,30.83,0.00,53.33,5.92,0.00,0.00,0.00,0.00,13.43,0.00,0.00,0.93,23.06,0.00,8.89,2.58,13.01,0.00,0.00,1.73
0,80.22,38.57,26.67,29.47,10.93,7.50,9.00,9.23,4.15,16.67,2.00,6.00,30.92,0.00,55.00,5.93,0.00,0.00,0.00,0.00,13.65,0.00,0.00,0.96,22.65,0.00,8.89,2.52,13.49,0.00,0.00,1.82
0,79.45,37.14,26.67,29.04,13.33,9.00,10.50,11.93,4.60,20.00,2.00,6.38,31.24,0.00,56.67,5.82,0.00,0.00,0.00,0.00,13.73,0.00,0.00,0.94,21.92,0.00,6.67,2.35,13.65,0.00,0.00,1.82
0,77.97,40.00,23.33,26.64,14.88,10.00,11.00,12.96,4.69,20.00,2.00,6.40,30.56,0.00,53.33,5.82,0.00,0.00,0.00,0.00,13.45,0.00,0.00,0.91,21.17,0.00,6.67,2.27,13.38,0.00,0.00,1.75
0,76.95,40.00,26.67,25.07,16.62,11.50,12.50,15.30,4.69,20.00,2.00,6.40,30.10,0.00,51.67,5.68,0.00,0.00,0.00,0.00,13.39,0.00,0.00,0.91,21.66,0.00,6.67,2.37,14.08,0.00,0.00,1.90
0,77.84,41.43,26.67,27.21,18.05,12.50,14.00,16.49,4.70,20.00,2.00,6.40,30.34,0.00,55.00,5.59,0.00,0.00,0.00,0.00,13.45,0.00,0.00,0.89,21.03,0.00,6.67,2.30,14.18,0.00,0.00,1.91
0,80.17,47.14,30.00,28.00,19.64,13.50,15.50,17.98,6.35,30.00,2.50,7.83,30.20,0.00,53.33,5.50,0.00,0.00,0.00,0.00,12.78,0.00,0.00,0.80,20.25,0.00,4.44,2.09,14.23,0.00,0.00,1.87
0,80.42,48.57,33.33,28.04,21.73,14.50,17.00,20.43,9.14,40.00,4.00,12.13,30.05,0.00,58.33,5.33,0.00,0.00,0.00,0.00,12.83,0.00,0.00,0.77,20.35,0.00,4.44,2.03,14.06,0.00,0.00,1.85
0,78.02,44.29,33.33,26.51,23.02,15.00,17.50,21.15,10.02,43.33,4.50,14.69,30.70,0.00,61.67,5.38,0.00,0.00,0.00,0.00,12.45,0.00,0.00,0.75,19.77,0.00,4.44,1.97,14.30,0.00,0.00,1.92
0,80.04,45.71,36.67,28.05,25.16,16.00,19.50,24.31,10.02,43.33,4.50,14.69,31.03,0.00,63.33,5.54,0.00,0.00,0.00,0.00,12.26,0.00,0.00,0.75,19.49,0.00,6.67,2.01,14.27,0.00,0.00,1.90
0,80.34,47.14,36.67,28.24,25.86,16.50,19.50,24.94,10.02,43.33,4.50,14.69,31.12,0.00,63.33,5.49,0.00,0.00,0.00,0.00,12.63,0.00,0.00,0.80,20.08,0.00,6.67,2.13,14.19,0.00,0.00,1.89
0,80.52,47.14,36.67,28.59,25.89,16.50,19.50,24.94,10.02,43.33,4.50,14.69,30.92,0.00,63.33,5.50,0.00,0.00,0.00,0.00,12.38,0.00,0.00,0.79,19.70,0.00,6.67,2.10,14.39,0.00,0.00,1.86
0,82.07,45.71,36.67,30.28,25.88,16.50,19.50,24.94,10.02,43.33,4.50,14.69,32.25,0.00,65.00,5.81,0.00,0.00,0.00,0.00,12.18,0.00,0.00,0.76,19.75,0.00,6.67,2.11,14.65,0.00,0.00,1.94
0,80.01,44.29,36.67,28.67,25.63,16.00,19.00,24.91,10.02,43.33,4.50,14.69,31.43,0.00,61.67,5.62,0.00,0.00,0.00,0.00,12.19,0.00,0.00,0.79,19.47,0.00,6.67,2.06,14.61,0.00,0.00,1.97
0,82.77,47.14,36.67,30.54,25.35,16.00,19.00,24.82,10.02,43.33,4.50,14.69,31.33,0.00,58.33,5.46,0.00,0.00,0.00,0.00,12.74,0.00,0.00,0.92,18.99,0.00,6.67,2.04,14.69,0.00,0.00,2.00
0,79.80,45.71,33.33,28.46,24.91,15.50,19.00,24.73,10.00,43.33,4.50,14.69,32.07,0.00,63.33,5.76,0.00,0.00,0.00,0.00,12.50,0.00,0.00,0.92,18.59,0.00,6.67,1.97,14.28,0.00,0.00,1.96
0,80.13,45.71,33.33,28.75,24.43,15.00,18.50,24.57,10.00,43.33,4.50,14.69,33.08,0.00,65.00,6.20,0.00,0.00,0.00,0.00,13.06,0.00,0.00,1.01,19.09,0.00,6.67,2.10,14.16,0.00,0.00,1.82
0,80.31,48.57,33.33,29.28,23.56,14.00,17.50,24.14,10.00,43.33,4.50,14.69,33.71,0.00,66.67,6.57,0.00,0.00,0.00,0.00,13.25,0.00,0.00,1.03,19.28,0.00,6.67,2.12,14.10,0.00,0.00,1.74
0,79.88,48.57,30.00,28.79,22.39,13.00,15.50,23.76,10.00,43.33,4.50,14.69,33.18,0.00,65.00,6.45,0.00,0.00,0.00,0.00,13.26,0.00,0.00,1.04,18.38,0.00,4.44,1.94,14.17,0.00,0.00,1.79
0,79.53,48.57,30.00,29.23,19.52,11.50,13.50,20.66,10.00,43.33,4.50,14.69,33.64,0.00,68.33,6.45,0.00,0.00,0.00,0.00,13.33,0.00,0.00,1.05,18.39,0.00,2.22,1.86,13.96,0.00,0.00,1.73
0,80.92,51.43,30.00,29.77,17.73,10.50,12.00,17.95,10.00,43.33,4.50,14.69,32.90,0.00,68.33,6.30,0.00,0.00,0.00,0.00,12.86,0.00,0.00,1.05,18.31,0.00,2.22,1.83,13.65,0.00,0.00,1.72
0,81.11,50.00,26.67,30.06,15.68,9.00,10.50,15.90,8.70,36.67,3.50,13.51,32.53,0.00,66.67,6.04,0.00,0.00,0.00,0.00,13.14,0.00,0.00,1.09,17.46,0.00,2.22,1.71,13.18,0.00,0.00,1.68
0,77.94,50.00,23.33,27.19,15.78,9.50,11.00,15.80,6.74,30.00,2.50,9.20,33.27,0.00,68.33,6.20,0.00,0.00,0.00,0.00,13.06,0.00,0.00,1.09,17.88,0.00,2.22,1.76,12.89,0.00,0.00,1.66
0,77.35,47.14,23.33,26.50,14.93,9.50,11.00,14.31,5.91,23.33,2.50,8.34,34.07,0.00,70.00,6.34,0.00,0.00,0.00,0.00,12.95,0.00,0.00,1.09,17.89,0.00,2.22,1.77,12.96,0.00,0.00,1.72
0,80.32,50.00,23.33,27.27,15.39,9.50,12.00,14.54,5.79,23.33,2.50,8.31,33.72,0.00,70.00,6.11,0.00,0.00,0.00,0.00,12.94,0.00,0.00,1.10,17.67,0.00,2.22,1.74,12.90,0.00,0.00,1.76
0,78.77,47.14,23.33,27.02,15.81,9.50,12.50,14.63,5.78,23.33,2.50,8.31,34.00,0.00,73.33,6.14,0.00,0.00,0.00,0.00,13.43,0.00,0.00,1.13,17.65,0.00,2.22,1.70,12.90,0.00,0.00,1.79
0,75.89,42.86,20.00,24.37,16.29,9.50,13.00,16.03,5.78,23.33,2.50,8.31,34.67,0.00,73.33,6.41,0.00,0.00,0.00,0.00,13.34,0.00,0.00,1.14,17.62,0.00,2.22,1.64,13.45,0.00,0.00,1.91
0,76.23,41.43,23.33,24.45,16.37,9.50,13.00,16.19,4.53,13.33,2.00,6.97,34.68,0.00,75.00,6.41,0.00,0.00,0.00,0.00,13.23,0.00,0.00,1.12,17.67,0.00,2.22,1.68,13.37,0.00,0.00,1.94
0,74.81,40.00,16.67,24.39,16.36,9.50,13.00,16.19,3.47,13.33,1.50,4.70,35.01,0.00,73.33,6.52,0.00,0.00,0.00,0.00,13.39,0.00,0.00,1.13,17.87,0.00,2.22,1.71,13.81,0.00,0.00,2.03
0,75.12,38.57,16.67,24.85,17.85,10.50,14.50,17.86,3.58,16.67,1.50,4.50,34.90,0.00,73.33,6.64,0.00,0.00,0.00,0.00,13.70,0.00,0.00,1.14,18.28,0.00,2.22,1.77,14.17,0.00,0.00,2.17
0,72.82,37.14,13.33,22.36,17.73,10.50,14.50,18.08,5.03,23.33,2.00,6.66,34.47,0.00,73.33,6.41,0.00,0.00,0.00,0.00,13.66,0.00,0.00,1.17,17.77,0.00,0.00,1.67,14.16,0.00,0.00,2.25
0,75.38,38.57,20.00,24.61,17.93,11.00,16.00,17.55,5.20,23.33,2.00,6.80,35.25,0.00,78.33,6.46,0.00,0.00,0.00,0.00,13.63,0.00,0.00,1.14,17.33,0.00,0.00,1.54,14.26,0.00,0.00,2.28
0,78.52,42.86,23.33,26.03,20.83,12.00,18.00,22.58,5.21,23.33,2.00,6.80,34.99,0.00,78.33,6.39,0.00,0.00,0.00,0.00,13.60,0.00,0.00,1.12,17.62,0.00,0.00,1.57,14.02,0.00,0.00,2.30
0,76.08,44.29,20.00,24.09,22.90,13.50,20.50,25.04,5.20,23.33,2.00,6.80,33.73,0.00,73.33,5.93,0.00,0.00,0.00,0.00,13.73,0.00,0.00,1.13,17.61,0.00,0.00,1.59,13.93,0.00,0.00,2.29
0,80.15,48.57,20.00,25.48,24.37,14.50,22.00,26.32,5.63,26.67,2.00,6.96,33.68,0.00,73.33,5.88,0.00,0.00,0.00,0.00,13.73,0.00,0.00,1.10,17.91,0.00,0.00,1.58,13.57,0.00,0.00,2.19
0,79.09,47.14,20.00,24.59,24.54,14.50,22.00,26.41,7.88,33.33,3.00,10.06,33.51,0.00,75.00,5.84,0.00,0.00,0.00,0.00,13.29,0.00,0.00,0.94,18.09,0.00,0.00,1.63,13.89,0.00,0.00,2.27
0,78.97,48.57,20.00,24.40,24.86,14.50,22.00,26.41,10.78,43.33,4.50,14.83,32.91,0.00,73.33,5.61,0.00,0.00,0.00,0.00,13.29,0.00,0.00,0.89,19.00,0.00,0.00,1.79,14.05,0.00,0.00,2.30
0,80.36,51.43,23.33,25.10,27.36,16.00,24.00,28.57,11.65,46.67,5.00,17.41,33.00,0.00,75.00,5.38,0.00,0.00,0.00,0.00,13.25,0.00,0.00,0.83,19.57,0.00,0.00,1.85,14.06,0.00,0.00,2.33
0,79.66,50.00,23.33,24.96,29.57,17.00,26.00,32.09,11.69,46.67,5.00,17.42,33.43,0.00,73.33,5.48,0.00,0.00,0.00,0.00,13.36,0.00,0.00,0.81,19.81,0.00,0.00,1.86,14.67,0.00,0.00,2.54
0,79.72,48.57,26.67,24.68,30.27,17.50,26.00,32.72,11.69,46.67,5.00,17.42,33.48,0.00,73.33,5.40,0.00,0.00,0.00,0.00,13.23,0.00,0.00,0.78,19.61,0.00,0.00,1.86,14.70,0.00,0.00,2.66
0,84.26,51.43,33.33,27.85,30.29,17.50,26.00,32.73,11.69,46.67,5.00,17.42,33.45,0.00,70.00,5.62,0.00,0.00,0.00,0.00,13.26,0.00,0.00,0.77,19.60,0.00,0.00,1.86,15.15,0.00,0.00,2.74
0,84.70,50.00,33.33,27.37,30.29,17.50,26.00,32.73,11.71,46.67,5.00,17.42,34.89,0.00,70.00,6.10,0.00,0.00,0.00,0.00,13.92,0.00,0.00,0.84,19.78,0.00,0.00,1.93,15.10,0.00,0.00,2.69
0,82.74,47.14,30.00,27.28,30.31,17.50,26.00,32.73,11.72,46.67,5.00,17.42,37.44,5.00,76.67,7.21,0.00,0.00,0.00,0.00,13.97,0.00,0.00,0.86,19.75,0.00,0.00,1.94,15.89,0.00,0.00,2.90
0,83.83,48.57,33.33,27.99,30.03,17.00,25.50,32.66,11.72,46.67,5.00,17.42,36.80,5.00,71.67,7.27,0.00,0.00,0.00,0.00,15.83,0.00,0.00,1.23,20.20,0.00,2.22,2.02,16.27,0.00,0.00,3.04
0,87.07,55.71,33.33,28.74,28.94,16.00,24.50,32.04,11.71,46.67,5.00,17.42,37.65,5.00,70.00,7.89,0.00,0.00,0.00,0.00,16.08,0.00,0.00,1.29,20.61,0.00,4.44,2.13,16.20,0.00,0.00,3.01
0,92.77,57.14,40.00,33.57,27.31,15.00,23.00,30.49,11.71,46.67,5.00,17.42,37.16,5.00,66.67,7.99,0.00,0.00,0.00,0.00,16.19,0.00,0.00,1.29,20.39,0.00,4.44,2.09,16.38,0.00,0.00,3.00
0,99.29,61.43,46.67,43.77,25.78,14.00,21.00,29.11,11.71,46.67,5.00,17.42,36.76,5.00,66.67,7.70,0.00,0.00,0.00,0.00,16.74,0.00,0.00,1.31,20.96,0.00,6.67,2.25,16.20,0.00,0.00,2.91
0,101.66,64.29,46.67,46.16,23.49,13.00,19.00,26.66,11.71,46.67,5.00,17.42,35.92,5.00,66.67,7.43,0.00,0.00,0.00,0.00,18.42,3.33,0.00,1.91,21.75,0.00,8.89,2.34,16.74,3.33,0.00,3.28
1,103.99,65.71,50.00,47.56,21.15,11.50,17.00,24.47,11.72,46.67,5.00,17.42,36.07,5.00,66.67,7.33,0.00,0.00,0.00,0.00,20.48,3.33,0.00,2.49,21.97,0.00,8.89,2.34,17.52,3.33,0.00,3.44
1,108.83,67.14,56.67,51.46,19.13,10.50,15.50,21.66,11.48,43.33,4.50,17.42,38.18,10.00,70.00,8.49,0.00,0.00,0.00,0.00,20.67,3.33,0.00,2.53,23.76,0.00,15.56,2.78,18.43,3.33,0.00,3.75
1,115.06,72.86,63.33,57.61,17.31,9.00,14.00,19.56,9.25,33.33,3.50,15.05,40.23,15.00,68.33,8.99,0.89,0.50,2.50,1.38,21.24,3.33,0.00,2.59,24.50,0.00,15.56,2.83,18.85,3.33,0.00,3.80
1,122.48,78.57,73.33,62.08,15.79,8.50,13.00,17.44,7.47,26.67,3.00,11.14,43.87,20.00,73.33,11.64,1.47,1.00,5.00,3.97,23.47,10.00,0.00,3.49,25.28,0.00,15.56,3.21,20.14,6.67,0.00,4.39
1,127.85,81.43,80.00,67.63,15.35,8.50,12.00,16.71,6.95,23.33,3.00,10.63,46.26,20.00,80.00,12.23,1.49,1.00,5.00,3.97,25.86,10.00,0.00,4.05,25.41,0.00,15.56,3.24,20.59,6.67,0.00,4.56
1,132.15,82.86,83.33,72.82,14.06,8.50,11.50,13.82,6.95,23.33,3.00,10.63,49.83,25.00,83.33,13.70,1.50,1.00,5.00,3.97,27.49,10.00,0.00,4.32,26.24,0.00,17.78,3.52,21.10,6.67,0.00,4.72
1,133.05,82.86,86.67,74.36,13.10,8.50,10.50,11.44,6.94,23.33,3.00,10.63,51.95,25.00,91.67,14.68,1.50,1.00,5.00,3.97,28.26,10.00,0.00,4.42,28.08,0.00,22.22,4.06,23.06,10.00,0.00,5.90
1,135.15,82.86,90.00,76.73,13.21,8.50,11.00,11.44,6.55,20.00,3.00,10.48,53.98,30.00,95.00,15.50,2.32,2.50,7.50,4.96,29.77,10.00,0.00,4.69,29.83,0.00,28.89,4.54,23.81,10.00,0.00,6.21
1,136.90,84.29,93.33,77.84,14.61,9.50,12.50,12.90,4.71,13.33,2.00,7.58,55.97,30.00,96.67,16.03,2.58,3.00,7.50,5.25,31.08,13.33,0.00,5.86,30.86,0.00,31.11,4.95,24.09,10.00,0.00,6.33
1,139.31,85.71,93.33,80.64,16.60,10.50,14.00,15.17,3.65,10.00,1.50,5.04,55.76,30.00,93.33,16.26,2.59,3.00,7.50,5.25,33.85,23.33,0.00,6.87,31.95,0.00,35.56,5.08,24.68,10.00,0.00,6.56
1,141.62,87.14,93.33,83.68,17.11,10.50,14.00,16.36,2.02,6.67,0.50,1.67,55.16,30.00,91.67,15.95,4.03,4.50,12.50,9.20,37.88,33.33,10.00,8.51,32.04,0.00,42.22,5.10,25.15,10.00,0.00,6.63
1,146.62,92.86,100.00,86.82,17.14,10.50,14.50,16.91,1.97,6.67,0.50,1.66,57.56,35.00,96.67,16.96,4.08,4.50,12.50,9.22,40.55,33.33,10.00,9.11,33.74,2.22,46.67,5.55,25.63,10.00,0.00,6.87
1,149.29,94.29,103.33,88.30,17.48,11.00,16.00,16.38,1.97,6.67,0.50,1.66,57.01,35.00,95.00,16.77,4.08,4.50,12.50,9.22,42.00,33.33,10.00,9.50,35.99,2.22,53.33,6.13,25.86,10.00,0.00,6.73
1,149.73,92.86,100.00,90.72,18.85,12.00,18.00,17.84,3.26,13.33,1.00,3.13,56.92,35.00,96.67,16.73,4.08,4.50,12.50,9.22,42.15,33.33,10.00,9.52,36.65,2.22,53.33,6.27,26.51,10.00,0.00,6.89
1,152.09,95.71,106.67,93.11,21.02,13.50,19.50,20.13,5.27,20.00,2.00,6.68,57.97,35.00,98.33,17.08,4.08,4.50,12.50,9.22,41.97,33.33,10.00,9.52,37.59,2.22,55.56,6.72,27.23,10.00,0.00,7.12
1,156.18,98.57,110.00,95.67,23.07,14.50,21.00,22.65,5.49,20.00,2.00,6.94,58.90,40.00,96.67,17.93,4.08,4.50,12.50,9.22,44.99,36.67,10.00,10.61,38.39,2.22,55.56,6.88,26.94,10.00,0.00,7.04
1,158.22,100.00,110.00,98.76,23.31,14.50,21.00,22.83,5.49,20.00,2.00,6.94,59.72,40.00,98.33,18.34,4.08,4.50,12.50,9.22,44.74,36.67,10.00,10.51,38.54,2.22,53.33,7.09,26.81,10.00,0.00,6.99
1,160.36,98.57,113.33,101.28,23.31,14.50,21.00,22.83,5.49,20.00,2.00,6.94,60.52,40.00,101.67,18.52,4.08,4.50,12.50,9.22,45.23,36.67,10.00,10.54,40.07,2.22,57.78,7.46,26.51,10.00,0.00,6.89
1,159.93,98.57,113.33,102.05,23.31,14.50,21.00,22.83,5.50,20.00,2.00,6.94,63.28,45.00,108.33,19.86,4.08,4.50,12.50,9.22,46.70,40.00,10.00,10.94,40.96,2.22,57.78,7.63,27.24,10.00,0.00,7.14
1,153.75,95.71,110.00,91.54,23.31,14.50,21.00,22.83,5.49,20.00,2.00,6.94,65.61,45.00,113.33,20.46,4.08,4.50,12.50,9.22,48.48,43.33,10.00,11.31,41.97,2.22,60.00,8.14,27.58,10.00,0.00,7.20
1,157.29,95.71,113.33,97.33,23.30,14.50,21.00,22.83,5.50,20.00,2.00,6.94,70.12,55.00,118.33,22.32,4.17,4.50,12.50,9.22,48.46,43.33,10.00,11.36,42.11,2.22,60.00,8.09,27.59,6.67,0.00,7.06
1,160.16,95.71,113.33,101.66,23.30,14.50,21.00,22.83,5.49,20.00,2.00,6.94,70.81,55.00,120.00,22.66,4.49,5.00,12.50,9.53,47.27,43.33,10.00,10.96,42.78,2.22,62.22,8.24,27.22,6.67,0.00,7.00
1,160.88,97.14,120.00,102.62,23.31,14.50,21.00,22.83,5.48,20.00,2.00,6.94,70.81,50.00,123.33,22.31,4.50,5.00,12.50,9.53,48.30,46.67,10.00,11.20,40.87,2.22,55.56,7.88,26.46,6.67,0.00,6.75
1,159.49,98.57,116.67,101.35,23.22,14.50,21.00,22.82,5.47,20.00,2.00,6.94,70.61,50.00,126.67,22.17,4.50,5.00,12.50,9.53,49.13,46.67,10.00,11.32,42.28,2.22,60.00,8.23,26.56,6.67,0.00,6.82
1,154.84,95.71,106.67,96.28,23.07,14.00,20.50,22.75,5.47,20.00,2.00,6.94,65.20,40.00,121.67,19.11,3.06,4.00,7.50,5.57,47.96,43.33,10.00,10.79,42.08,2.22,60.00,7.98,24.95,3.33,0.00,6.06
1,150.82,92.86,100.00,93.48,22.84,14.00,20.50,22.54,5.47,20.00,2.00,6.94,64.01,40.00,113.33,18.97,3.39,4.50,7.50,5.97,46.34,43.33,10.00,10.36,42.24,2.22,64.44,7.95,24.88,3.33,0.00,6.06
1,144.79,90.00,93.33,87.78,22.69,14.00,20.00,22.31,5.48,20.00,2.00,6.94,62.11,35.00,113.33,18.09,3.56,4.50,7.50,6.10,45.56,43.33,10.00,10.13,42.20,2.22,62.22,7.83,25.15,3.33,0.00,5.97
1,145.86,88.57,93.33,90.35,23.61,14.00,20.00,23.93,5.48,20.00,2.00,6.94,62.02,35.00,111.67,18.23,3.56,4.50,7.50,6.10,46.45,43.33,10.00,10.33,41.21,2.22,60.00,7.60,22.99,0.00,0.00,4.89
1,146.91,88.57,93.33,91.12,24.46,14.00,20.00,25.71,7.41,30.00,3.00,10.16,60.83,35.00,111.67,17.89,3.13,3.50,5.00,5.91,47.06,43.33,10.00,10.42,40.44,2.22,55.56,7.27,23.34,0.00,0.00,4.97
1,144.60,87.14,90.00,90.58,24.64,14.00,20.00,25.68,9.52,36.67,4.00,14.11,59.83,30.00,115.00,17.12,2.49,2.50,5.00,4.83,49.82,46.67,15.00,12.45,39.30,2.22,55.56,7.12,23.43,0.00,0.00,5.20
1,145.23,87.14,93.33,89.55,24.27,14.00,20.00,24.97,9.61,40.00,3.50,14.32,60.19,30.00,118.33,17.39,2.81,2.50,5.00,5.07,47.97,40.00,15.00,11.89,39.44,2.22,55.56,6.91,23.61,0.00,0.00,5.17
1,146.29,88.57,100.00,88.57,24.06,14.00,20.00,25.03,8.43,33.33,3.50,12.68,60.61,30.00,120.00,17.73,1.52,1.00,0.00,1.38,45.39,26.67,5.00,10.28,38.66,2.22,48.89,6.71,23.01,0.00,0.00,4.98
1,148.34,87.14,103.33,91.77,23.03,14.00,19.50,23.32,9.08,36.67,3.50,13.08,61.82,35.00,120.00,18.16,1.35,1.00,0.00,1.10,47.08,33.33,10.00,12.47,37.87,0.00,44.44,6.63,22.48,0.00,0.00,4.93
1,152.47,90.00,110.00,94.33,23.55,14.00,19.00,23.73,11.46,43.33,4.50,16.64,62.38,35.00,120.00,18.49,1.34,1.00,0.00,1.10,45.33,33.33,10.00,11.87,36.26,0.00,40.00,5.89,22.24,0.00,0.00,4.95
1,146.50,87.14,103.33,90.78,22.60,13.00,17.00,22.70,12.34,46.67,5.00,19.79,63.99,35.00,125.00,19.31,1.34,1.00,0.00,1.10,46.18,33.33,10.00,11.93,35.41,0.00,37.78,5.70,22.36,0.00,0.00,4.93
1,151.09,92.86,110.00,93.61,22.03,12.50,16.00,23.28,10.42,40.00,4.00,16.01,62.88,35.00,125.00,19.15,1.34,1.00,0.00,1.10,51.00,40.00,10.00,13.81,35.61,0.00,42.22,5.67,22.33,0.00,0.00,5.05
1,150.87,91.43,113.33,92.73,19.89,11.50,14.50,19.91,9.74,36.67,4.00,15.09,61.87,30.00,125.00,18.44,1.34,1.00,0.00,1.10,49.05,36.67,10.00,13.19,36.34,0.00,46.67,5.79,22.34,0.00,0.00,5.14
1,150.80,90.00,113.33,93.37,19.18,11.00,14.50,19.28,9.72,36.67,4.00,15.09,62.17,30.00,128.33,18.66,1.34,1.00,0.00,1.10,48.99,36.67,10.00,13.04,35.30,0.00,46.67,5.42,23.07,3.33,0.00,5.45
1,156.16,92.86,120.00,96.73,19.17,11.00,14.50,19.28,9.72,36.67,4.00,15.09,62.67,35.00,130.00,19.00,1.34,1.00,0.00,1.10,49.79,40.00,10.00,13.33,35.35,0.00,44.44,5.66,24.23,6.67,0.00,5.98
1,158.44,92.86,126.67,100.34,19.19,11.00,14.50,19.28,9.72,36.67,4.00,15.09,60.75,30.00,128.33,17.90,1.34,1.00,0.00,1.10,49.15,36.67,10.00,13.03,35.57,0.00,44.44,5.77,23.24,6.67,0.00,5.67
1,164.25,95.71,136.67,106.92,19.18,11.00,14.50,19.28,9.72,36.67,4.00,15.09,59.50,30.00,123.33,17.40,1.34,1.00,0.00,1.10,49.94,40.00,10.00,13.27,34.83,0.00,44.44,5.49,23.70,6.67,0.00,6.01
1,162.28,95.71,140.00,103.04,19.18,11.00,14.50,19.28,9.74,36.67,4.00,15.09,57.92,30.00,123.33,17.33,1.34,1.00,0.00,1.10,47.72,33.33,10.00,12.59,34.26,0.00,40.00,5.45,23.64,6.67,0.00,6.03
1,159.76,97.14,140.00,97.06,19.60,11.50,15.00,19.38,9.75,36.67,4.00,15.09,56.03,25.00,116.67,16.70,0.95,0.50,0.00,0.79,47.29,33.33,10.00,12.35,33.49,0.00,37.78,5.24,23.64,6.67,0.00,6.00
1,162.43,95.71,136.67,101.92,21.31,12.50,16.00,21.05,9.74,36.67,4.00,15.09,55.99,25.00,115.00,16.73,0.93,0.50,0.00,0.79,48.00,36.67,10.00,12.77,33.66,0.00,40.00,5.31,23.97,6.67,0.00,6.05
1,161.04,92.86,136.67,100.64,23.35,13.50,17.50,23.43,9.75,36.67,4.00,15.09,57.06,25.00,110.00,17.38,0.92,0.50,0.00,0.79,48.71,36.67,10.00,12.66,32.54,0.00,35.56,4.92,23.75,6.67,0.00,5.94
1,163.74,95.71,143.33,104.32,24.76,14.50,19.00,24.87,9.76,36.67,4.00,15.09,57.81,25.00,115.00,17.51,0.92,0.50,0.00,0.79,48.75,36.67,15.00,13.25,32.49,0.00,35.56,5.08,24.41,6.67,0.00,6.09
1,162.42,95.71,140.00,102.06,25.97,15.50,20.00,25.91,9.76,36.67,4.00,15.09,58.36,25.00,116.67,17.53,0.82,0.50,0.00,0.79,48.65,36.67,15.00,13.32,32.44,0.00,33.33,5.18,24.09,6.67,0.00,6.03
1,164.97,98.57,143.33,103.68,26.97,15.50,21.00,28.38,10.02,36.67,4.00,15.09,59.61,25.00,116.67,18.65,0.38,0.00,0.00,0.25,48.96,36.67,15.00,13.43,32.51,0.00,35.56,5.20,24.34,6.67,0.00,6.12
1,165.84,98.57,143.33,103.46,26.76,15.50,21.00,27.98,11.68,46.67,4.50,16.76,59.08,25.00,118.33,18.24,0.37,0.00,0.00,0.24,47.99,36.67,15.00,13.25,32.60,0.00,33.33,5.27,24.83,6.67,0.00,6.33
1,169.78,101.43,150.00,105.62,27.24,15.50,21.00,28.61,10.66,43.33,3.50,14.88,58.22,25.00,116.67,17.84,0.37,0.00,0.00,0.24,46.43,36.67,15.00,12.81,31.06,0.00,31.11,4.93,24.40,6.67,0.00,6.10
1,174.69,104.29,166.67,107.70,27.51,15.50,21.50,30.20,8.27,33.33,2.50,10.65,57.17,25.00,111.67,17.63,0.37,0.00,0.00,0.24,41.89,30.00,10.00,9.82,30.86,0.00,28.89,4.83,23.83,6.67,0.00,5.74
1,179.07,110.00,180.00,110.05,27.01,15.50,21.50,29.38,8.55,33.33,3.00,10.56,56.49,25.00,106.67,17.56,0.05,0.00,0.00,0.03,42.65,30.00,10.00,10.01,31.29,0.00,31.11,4.97,23.45,6.67,0.00,5.61
1,181.58,110.00,180.00,113.11,26.88,15.50,22.00,28.88,10.40,40.00,4.00,14.03,56.20,25.00,106.67,17.22,0.00,0.00,0.00,0.00,42.54,30.00,10.00,10.01,30.91,0.00,31.11,5.00,24.04,6.67,0.00,5.69
1,184.77,114.29,193.33,113.82,27.61,15.50,22.50,30.42,10.44,40.00,4.00,14.59,55.81,25.00,105.00,16.72,0.00,0.00,0.00,0.00,38.67,23.33,5.00,7.53,31.60,0.00,31.11,5.31,25.19,6.67,0.00,5.97
1,185.73,115.71,196.67,112.96,26.09,14.50,21.00,28.63,8.50,33.33,3.00,11.24,56.32,20.00,106.67,17.34,0.00,0.00,0.00,0.00,39.23,23.33,5.00,7.58,31.10,0.00,31.11,5.27,24.79,6.67,0.00,5.71
1,185.76,115.71,193.33,113.19,25.81,14.50,21.00,28.39,6.38,26.67,2.00,7.31,56.74,25.00,106.67,17.64,0.00,0.00,0.00,0.00,39.83,23.33,5.00,7.79,31.37,0.00,33.33,5.35,24.42,6.67,0.00,5.62
1,184.32,117.14,190.00,110.71,23.76,13.50,20.00,26.09,6.25,26.67,2.00,7.26,55.65,25.00,101.67,17.25,0.00,0.00,0.00,0.00,37.59,16.67,5.00,6.74,31.81,0.00,33.33,5.39,23.37,6.67,0.00,5.36
1,185.99,118.57,190.00,111.53,23.63,13.50,20.00,26.06,6.25,26.67,2.00,7.26,56.20,25.00,105.00,17.19,0.00,0.00,0.00,0.00,36.72,16.67,5.00,6.63,29.97,0.00,26.67,4.97,23.39,6.67,0.00,5.24
1,184.14,117.14,183.33,110.94,23.63,13.50,20.00,26.06,6.25,26.67,2.00,7.26,55.13,25.00,101.67,16.92,0.00,0.00,0.00,0.00,37.60,16.67,5.00,6.77,30.86,0.00,28.89,5.27,22.36,3.33,0.00,4.78
1,184.64,117.14,186.67,112.48,23.64,13.50,20.00,26.06,6.26,26.67,2.00,7.26,55.14,20.00,98.33,16.51,0.00,0.00,0.00,0.00,36.29,13.33,5.00,6.58,29.52,0.00,24.44,4.79,22.00,0.00,0.00,4.48
1,179.46,112.86,180.00,108.69,23.63,13.50,20.00,26.06,6.26,26.67,2.00,7.26,54.19,20.00,90.00,16.15,0.00,0.00,0.00,0.00,36.62,13.33,5.00,6.79,30.54,0.00,28.89,4.98,23.07,0.00,0.00,4.70
1,177.53,111.43,180.00,106.10,23.63,13.50,20.00,26.06,6.27,26.67,2.00,7.26,54.73,20.00,90.00,16.34,0.00,0.00,0.00,0.00,36.02,10.00,5.00,6.50,30.44,0.00,28.89,4.74,22.84,0.00,0.00,4.59
