0,45.63,5.71,0.00,9.98,4.54,2.00,2.00,3.71,10.60,40.00,4.00,16.32,27.98,0.00,48.33,4.44,0.00,0.00,0.00,0.00,11.83,0.00,0.00,0.55,19.80,0.00,4.44,2.05,10.00,0.00,0.00,0.93
0,45.38,5.71,0.00,9.60,4.54,2.00,2.00,3.71,10.63,40.00,4.00,16.32,27.73,0.00,46.67,4.58,0.00,0.00,0.00,0.00,11.80,0.00,0.00,0.57,19.76,0.00,4.44,2.10,10.00,0.00,0.00,0.95
0,47.02,5.71,0.00,10.00,4.53,2.00,2.00,3.71,10.63,40.00,4.00,16.32,27.32,0.00,46.67,4.51,0.00,0.00,0.00,0.00,12.01,0.00,0.00,0.57,19.36,0.00,4.44,1.99,10.15,0.00,0.00,0.96
0,46.82,5.71,0.00,9.79,4.53,2.00,2.00,3.71,10.63,40.00,4.00,16.32,27.92,0.00,46.67,4.65,0.00,0.00,0.00,0.00,11.90,0.00,0.00,0.57,19.00,0.00,4.44,1.85,9.77,0.00,0.00,0.92
0,45.95,5.71,0.00,9.28,4.05,2.00,1.50,3.69,10.63,40.00,4.00,16.32,26.96,0.00,43.33,4.34,0.00,0.00,0.00,0.00,11.70,0.00,0.00,0.58,18.64,0.00,4.44,1.78,9.90,0.00,0.00,0.98
0,45.30,7.14,0.00,9.22,2.76,1.00,1.00,2.37,10.63,40.00,4.00,16.32,25.85,0.00,36.67,4.12,0.00,0.00,0.00,0.00,11.84,0.00,0.00,0.60,18.54,0.00,4.44,1.66,10.02,0.00,0.00,1.03
0,45.45,7.14,0.00,9.11,2.73,1.00,1.00,2.37,10.63,40.00,4.00,16.32,25.04,0.00,35.00,3.99,0.00,0.00,0.00,0.00,12.10,0.00,0.00,0.64,18.67,0.00,4.44,1.71,10.46,0.00,0.00,1.15
0,44.53,5.71,0.00,8.50,2.73,1.00,1.00,2.37,10.62,40.00,4.00,16.32,24.61,0.00,35.00,3.94,0.00,0.00,0.00,0.00,12.27,0.00,0.00,0.65,18.49,0.00,4.44,1.69,10.83,0.00,0.00,1.28
0,44.66,5.71,0.00,8.69,2.73,1.00,1.00,2.37,10.61,40.00,4.00,16.32,24.96,0.00,35.00,4.08,0.00,0.00,0.00,0.00,12.36,0.00,0.00,0.66,18.99,0.00,4.44,1.76,10.62,0.00,0.00,1.31
0,44.96,5.71,0.00,8.88,2.73,1.00,1.00,2.37,10.60,40.00,4.00,16.32,24.73,0.00,35.00,4.02,0.00,0.00,0.00,0.00,12.43,0.00,0.00,0.70,18.12,0.00,2.22,1.59,11.24,0.00,0.00,1.41
0,45.05,5.71,0.00,8.89,2.73,1.00,1.00,2.37,10.60,40.00,4.00,16.32,24.43,0.00,35.00,3.85,0.00,0.00,0.00,0.00,12.18,0.00,0.00,0.72,18.03,0.00,2.22,1.53,11.20,0.00,0.00,1.49
0,45.00,5.71,0.00,8.92,2.73,1.00,1.00,2.37,10.59,40.00,4.00,16.32,24.65,0.00,35.00,3.90,0.00,0.00,0.00,0.00,12.22,0.00,0.00,0.74,18.01,0.00,2.22,1.56,11.42,0.00,0.00,1.62
0,47.13,10.00,0.00,9.65,2.73,1.00,1.00,2.37,10.18,36.67,3.50,16.32,25.52,0.00,35.00,3.97,0.00,0.00,0.00,0.00,11.97,0.00,0.00,0.75,17.81,0.00,2.22,1.56,11.28,0.00,0.00,1.59
0,50.05,11.43,0.00,12.11,2.85,1.00,1.00,2.38,7.76,26.67,3.00,12.40,24.72,0.00,30.00,3.98,0.00,0.00,0.00,0.00,11.93,0.00,0.00,0.75,17.83,0.00,0.00,1.53,11.44,0.00,0.00,1.61
0,57.59,17.14,13.33,18.34,3.90,2.00,2.00,3.02,6.99,20.00,3.00,11.08,24.90,0.00,30.00,4.22,0.00,0.00,0.00,0.00,13.58,0.00,0.00,1.03,18.64,0.00,0.00,1.63,11.49,0.00,0.00,1.61
0,58.89,20.00,13.33,19.20,5.98,3.00,3.50,5.43,6.84,20.00,3.00,11.04,24.64,0.00,28.33,4.26,0.00,0.00,0.00,0.00,14.16,0.00,0.00,1.12,18.04,0.00,0.00,1.53,11.85,0.00,0.00,1.71
0,62.28,24.29,20.00,20.48,6.12,3.00,3.50,5.46,6.84,20.00,3.00,11.04,27.32,0.00,31.67,5.64,0.00,0.00,0.00,0.00,15.69,3.33,0.00,2.10,19.52,0.00,2.22,1.72,12.08,0.00,0.00,1.73
0,67.12,27.14,23.33,23.07,4.06,2.00,2.50,3.17,6.84,20.00,3.00,11.04,28.55,0.00,33.33,6.01,0.00,0.00,0.00,0.00,19.54,10.00,0.00,4.18,20.34,0.00,2.22,2.08,12.65,0.00,0.00,1.93
0,65.82,25.71,23.33,22.63,3.79,2.00,2.50,3.10,6.64,20.00,3.00,11.00,28.01,0.00,30.00,5.92,0.00,0.00,0.00,0.00,20.85,10.00,0.00,4.45,20.65,0.00,4.44,2.15,12.70,0.00,0.00,1.96
0,70.83,30.00,26.67,24.58,3.80,2.00,2.50,3.10,4.70,13.33,2.00,7.74,28.11,0.00,30.00,5.86,0.00,0.00,0.00,0.00,23.94,16.67,0.00,5.39,20.79,0.00,4.44,2.15,13.13,0.00,0.00,2.07
0,73.01,32.86,26.67,26.17,3.81,2.00,2.50,3.10,2.57,6.67,1.00,3.81,28.84,0.00,31.67,5.97,0.00,0.00,0.00,0.00,25.22,16.67,0.00,5.58,21.61,0.00,8.89,2.34,12.50,0.00,0.00,1.94
0,73.88,32.86,26.67,26.68,3.80,2.00,2.50,3.10,0.48,0.00,0.00,0.02,29.19,0.00,31.67,6.17,0.00,0.00,0.00,0.00,26.09,16.67,0.00,5.76,22.11,0.00,8.89,2.44,12.68,0.00,0.00,1.94
0,77.29,35.71,30.00,29.83,3.80,2.00,2.50,3.10,0.42,0.00,0.00,0.01,29.22,0.00,31.67,6.05,0.00,0.00,0.00,0.00,27.63,16.67,0.00,6.13,21.36,0.00,8.89,2.29,13.02,0.00,0.00,2.06
0,76.57,35.71,30.00,29.59,3.80,2.00,2.50,3.10,0.43,0.00,0.00,0.01,29.86,0.00,36.67,6.16,0.00,0.00,0.00,0.00,28.02,16.67,0.00,6.24,21.85,0.00,8.89,2.32,13.22,0.00,0.00,2.15
0,75.51,35.71,30.00,29.57,3.81,2.00,2.50,3.10,0.43,0.00,0.00,0.01,30.23,0.00,38.33,6.20,0.00,0.00,0.00,0.00,28.28,16.67,0.00,6.28,21.63,0.00,8.89,2.29,13.10,0.00,0.00,2.14
0,74.96,35.71,30.00,29.58,3.81,2.00,2.50,3.10,0.43,0.00,0.00,0.01,30.06,0.00,38.33,6.23,0.00,0.00,0.00,0.00,27.83,16.67,0.00,6.25,21.53,0.00,8.89,2.30,13.18,0.00,0.00,2.18
0,75.52,35.71,30.00,29.58,3.82,2.00,2.50,3.10,1.82,6.67,1.00,2.26,31.34,0.00,41.67,6.44,0.00,0.00,0.00,0.00,27.87,16.67,0.00,6.22,21.69,0.00,8.89,2.36,13.07,0.00,0.00,2.14
0,74.72,34.29,30.00,29.52,3.82,2.00,2.50,3.10,2.82,13.33,1.00,3.27,31.34,0.00,41.67,6.57,0.00,0.00,0.00,0.00,27.64,16.67,0.00,6.20,21.72,0.00,8.89,2.38,12.60,0.00,0.00,1.99
0,74.99,34.29,30.00,29.57,3.83,2.00,2.50,3.10,3.04,13.33,1.00,3.34,31.30,0.00,41.67,6.54,0.00,0.00,0.00,0.00,28.34,16.67,0.00,6.32,22.09,0.00,8.89,2.38,12.44,0.00,0.00,1.95
0,74.21,34.29,30.00,29.20,3.84,2.00,2.50,3.10,3.07,13.33,1.00,3.35,32.54,0.00,46.67,6.77,0.00,0.00,0.00,0.00,28.15,16.67,0.00,6.30,21.77,0.00,8.89,2.38,12.80,0.00,0.00,1.96
0,72.24,34.29,30.00,28.61,4.99,2.50,3.00,3.73,3.07,13.33,1.00,3.35,32.60,0.00,48.33,6.70,0.00,0.00,0.00,0.00,28.08,16.67,0.00,6.25,22.42,0.00,8.89,2.45,12.58,0.00,0.00,1.96
0,72.97,34.29,30.00,28.58,5.95,3.50,4.00,5.09,3.07,13.33,1.00,3.35,32.49,0.00,48.33,6.66,0.00,0.00,0.00,0.00,28.01,16.67,0.00,6.23,22.97,0.00,8.89,2.48,12.45,0.00,0.00,1.88
0,72.38,34.29,30.00,28.55,6.57,4.00,4.50,5.28,3.07,13.33,1.00,3.35,33.17,0.00,50.00,6.73,0.00,0.00,0.00,0.00,28.26,16.67,0.00,6.24,22.64,0.00,8.89,2.49,12.37,0.00,0.00,1.76
0,69.27,31.43,30.00,27.48,6.64,4.00,4.50,5.30,4.68,23.33,1.50,4.93,33.78,0.00,53.33,6.92,0.00,0.00,0.00,0.00,28.50,16.67,0.00,6.23,22.90,0.00,11.11,2.53,12.26,0.00,0.00,1.70
0,69.13,30.00,30.00,26.79,6.55,4.00,4.50,5.30,7.11,33.33,2.50,7.91,32.82,0.00,51.67,6.49,0.00,0.00,0.00,0.00,28.35,16.67,0.00,6.21,23.11,0.00,11.11,2.62,12.58,0.00,0.00,1.75
0,60.31,22.86,20.00,20.42,5.71,3.50,3.50,4.77,8.45,40.00,3.00,10.93,33.08,0.00,53.33,6.40,0.00,0.00,0.00,0.00,27.44,16.67,0.00,6.05,22.59,0.00,11.11,2.58,12.51,0.00,0.00,1.77
0,57.29,20.00,16.67,17.75,3.54,2.00,2.00,2.45,8.76,43.33,3.00,11.13,32.96,0.00,53.33,6.32,0.00,0.00,0.00,0.00,26.66,16.67,0.00,5.88,22.87,0.00,11.11,2.63,12.39,0.00,0.00,1.74
0,55.38,17.14,13.33,17.35,3.25,2.00,2.00,2.20,8.79,43.33,3.00,11.14,31.67,0.00,50.00,5.45,0.00,0.00,0.00,0.00,26.41,16.67,0.00,5.78,22.30,0.00,8.89,2.62,12.09,0.00,0.00,1.68
0,51.05,12.86,6.67,13.94,3.24,2.00,2.00,2.20,8.79,43.33,3.00,11.14,29.59,0.00,48.33,4.63,0.00,0.00,0.00,0.00,21.98,6.67,0.00,2.93,20.48,0.00,8.89,2.03,11.75,0.00,0.00,1.53
0,50.27,12.86,6.67,13.74,3.24,2.00,2.00,2.20,8.80,43.33,3.00,11.14,28.71,0.00,46.67,4.34,0.00,0.00,0.00,0.00,20.80,6.67,0.00,2.71,20.39,0.00,6.67,1.96,11.80,0.00,0.00,1.50
0,47.72,11.43,3.33,12.86,3.25,2.00,2.00,2.20,8.80,43.33,3.00,11.14,28.74,0.00,45.00,4.33,0.00,0.00,0.00,0.00,18.26,0.00,0.00,2.01,20.53,0.00,6.67,2.02,11.20,0.00,0.00,1.38
0,43.31,7.14,3.33,10.46,3.23,2.00,2.00,2.20,8.80,43.33,3.00,11.14,28.61,0.00,43.33,4.35,0.00,0.00,0.00,0.00,16.92,0.00,0.00,1.56,20.11,0.00,2.22,1.91,11.39,0.00,0.00,1.37
0,43.96,8.57,3.33,10.72,3.23,2.00,2.00,2.20,8.80,43.33,3.00,11.13,28.45,0.00,46.67,4.20,0.00,0.00,0.00,0.00,15.81,0.00,0.00,1.32,19.86,0.00,2.22,1.88,11.26,0.00,0.00,1.37
0,41.68,8.57,0.00,8.25,3.23,2.00,2.00,2.20,8.79,43.33,3.00,11.13,28.49,0.00,45.00,4.34,0.00,0.00,0.00,0.00,14.64,0.00,0.00,0.96,20.42,0.00,2.22,1.93,11.20,0.00,0.00,1.33
0,42.18,7.14,0.00,8.32,3.24,2.00,2.00,2.20,8.78,43.33,3.00,11.13,28.74,0.00,45.00,4.36,0.00,0.00,0.00,0.00,13.85,0.00,0.00,0.85,20.39,0.00,2.22,1.95,11.03,0.00,0.00,1.24
0,45.26,8.57,0.00,9.63,3.24,2.00,2.00,2.20,8.79,43.33,3.00,11.13,27.67,0.00,41.67,4.06,0.00,0.00,0.00,0.00,14.23,0.00,0.00,0.85,20.18,0.00,2.22,1.96,11.07,0.00,0.00,1.21
0,47.63,10.00,0.00,10.24,3.23,2.00,2.00,2.20,8.79,43.33,3.00,11.13,29.30,0.00,46.67,4.34,0.00,0.00,0.00,0.00,14.18,0.00,0.00,0.83,20.86,0.00,4.44,2.16,11.13,0.00,0.00,1.19
0,52.05,12.86,3.33,12.51,3.24,2.00,2.00,2.20,8.40,40.00,2.50,11.13,29.28,0.00,48.33,4.45,0.00,0.00,0.00,0.00,14.07,0.00,0.00,0.82,20.77,0.00,4.44,2.15,11.14,0.00,0.00,1.18
0,52.41,12.86,3.33,13.73,3.23,2.00,2.00,2.20,6.58,30.00,2.00,8.09,28.74,0.00,45.00,4.30,0.00,0.00,0.00,0.00,14.19,0.00,0.00,0.83,20.68,0.00,4.44,2.12,11.16,0.00,0.00,1.18
0,53.55,15.71,3.33,14.10,3.23,2.00,2.00,2.20,6.24,30.00,2.00,7.81,29.50,0.00,48.33,4.35,0.00,0.00,0.00,0.00,13.94,0.00,0.00,0.78,20.56,0.00,4.44,2.10,11.00,0.00,0.00,1.12
0,55.99,18.57,3.33,15.24,3.83,2.50,3.00,2.42,6.16,30.00,2.00,7.79,29.04,0.00,48.33,4.16,0.00,0.00,0.00,0.00,13.95,0.00,0.00,0.78,20.44,0.00,4.44,2.05,10.52,0.00,0.00,1.03
0,58.68,21.43,3.33,16.98,5.73,3.50,4.50,4.16,6.16,30.00,2.00,7.79,28.09,0.00,45.00,3.89,0.00,0.00,0.00,0.00,14.47,0.00,0.00,0.86,19.79,0.00,4.44,1.98,10.59,0.00,0.00,1.05
0,58.11,21.43,3.33,17.02,6.11,4.00,5.50,3.89,6.16,30.00,2.00,7.79,28.35,0.00,43.33,3.94,0.00,0.00,0.00,0.00,14.48,0.00,0.00,0.84,19.50,0.00,4.44,2.00,10.41,0.00,0.00,0.97
0,59.48,22.86,3.33,17.83,6.23,3.50,5.00,5.28,6.16,30.00,2.00,7.79,29.16,0.00,48.33,4.14,0.00,0.00,0.00,0.00,14.11,0.00,0.00,0.82,19.39,0.00,4.44,1.98,9.99,0.00,0.00,0.93
0,61.53,24.29,3.33,20.28,6.05,3.50,5.00,5.17,4.86,20.00,1.50,6.32,28.76,0.00,46.67,4.08,0.00,0.00,0.00,0.00,13.75,0.00,0.00,0.79,19.24,0.00,2.22,1.92,10.08,0.00,0.00,0.93
0,61.91,25.71,3.33,21.15,6.04,3.50,5.00,5.17,3.39,13.33,1.00,4.44,28.63,0.00,45.00,4.10,0.00,0.00,0.00,0.00,13.33,0.00,0.00,0.76,19.31,0.00,2.22,1.91,10.15,0.00,0.00,0.95
0,62.26,25.71,3.33,21.21,6.04,3.50,5.00,5.17,1.27,6.67,0.00,0.76,28.12,0.00,43.33,4.05,0.00,0.00,0.00,0.00,13.44,0.00,0.00,0.78,19.41,0.00,2.22,1.85,9.96,0.00,0.00,0.89
0,61.72,25.71,3.33,21.21,6.04,3.50,5.00,5.17,0.48,0.00,0.00,0.01,27.84,0.00,43.33,3.97,0.00,0.00,0.00,0.00,13.00,0.00,0.00,0.76,19.11,0.00,2.22,1.81,10.05,0.00,0.00,0.90
0,61.87,25.71,3.33,21.45,6.03,3.50,5.00,5.17,0.45,0.00,0.00,0.01,28.25,0.00,45.00,3.93,0.00,0.00,0.00,0.00,13.03,0.00,0.00,0.77,19.28,0.00,4.44,1.86,10.06,0.00,0.00,0.92
0,60.62,25.71,3.33,21.14,6.04,3.50,5.00,5.17,0.45,0.00,0.00,0.01,27.75,0.00,45.00,3.83,0.00,0.00,0.00,0.00,12.90,0.00,0.00,0.75,19.90,0.00,4.44,1.93,10.19,0.00,0.00,0.91
0,59.98,24.29,3.33,21.07,6.04,3.50,5.00,5.17,0.44,0.00,0.00,0.01,28.79,0.00,48.33,4.35,0.00,0.00,0.00,0.00,12.73,0.00,0.00,0.73,20.27,0.00,4.44,2.00,10.43,0.00,0.00,0.95
0,59.77,22.86,3.33,21.20,6.05,3.50,5.00,5.17,0.43,0.00,0.00,0.01,28.96,0.00,50.00,4.46,0.00,0.00,0.00,0.00,12.88,0.00,0.00,0.74,20.48,0.00,4.44,2.06,10.51,0.00,0.00,0.94
0,60.60,24.29,3.33,21.38,6.05,3.50,5.00,5.17,2.19,10.00,1.00,2.68,28.83,0.00,53.33,4.38,0.00,0.00,0.00,0.00,13.28,0.00,0.00,0.81,20.21,0.00,4.44,2.01,10.68,0.00,0.00,1.00
0,60.59,22.86,3.33,21.06,6.06,3.50,5.00,5.17,2.82,13.33,1.00,3.28,27.76,0.00,48.33,4.22,0.00,0.00,0.00,0.00,13.17,0.00,0.00,0.80,19.90,0.00,4.44,1.93,10.85,0.00,0.00,1.02
0,58.42,21.43,3.33,20.31,6.06,3.50,5.00,5.17,2.88,13.33,1.00,3.30,27.62,0.00,48.33,4.07,0.00,0.00,0.00,0.00,13.08,0.00,0.00,0.77,19.86,0.00,4.44,1.91,10.62,0.00,0.00,0.96
0,60.85,22.86,3.33,21.04,6.05,3.50,5.00,5.17,2.97,13.33,1.00,3.31,27.74,0.00,48.33,4.03,0.00,0.00,0.00,0.00,13.54,0.00,0.00,0.81,19.76,0.00,4.44,1.92,10.69,0.00,0.00,0.95
0,61.10,22.86,3.33,22.06,7.52,4.00,6.00,6.91,2.97,13.33,1.00,3.31,28.84,0.00,51.67,4.38,0.00,0.00,0.00,0.00,13.09,0.00,0.00,0.78,20.28,0.00,4.44,1.97,10.71,0.00,0.00,0.96
0,60.19,22.86,3.33,21.47,8.68,5.50,7.00,7.77,2.97,13.33,1.00,3.31,28.31,0.00,50.00,4.28,0.00,0.00,0.00,0.00,12.88,0.00,0.00,0.75,19.93,0.00,2.22,1.85,10.72,0.00,0.00,0.98
0,58.26,22.86,0.00,21.45,8.79,5.50,7.00,7.81,2.96,13.33,1.00,3.31,27.56,0.00,46.67,4.07,0.00,0.00,0.00,0.00,12.99,0.00,0.00,0.76,19.86,0.00,2.22,1.80,10.60,0.00,0.00,1.01
0,57.94,22.86,3.33,20.13,8.80,5.50,7.00,7.81,3.63,16.67,1.00,3.64,28.01,0.00,46.67,4.18,0.00,0.00,0.00,0.00,12.86,0.00,0.00,0.74,19.60,0.00,2.22,1.75,10.82,0.00,0.00,1.02
0,57.53,21.43,3.33,20.26,8.80,5.50,7.00,7.81,5.47,23.33,2.00,6.95,28.11,0.00,46.67,4.20,0.00,0.00,0.00,0.00,12.50,0.00,0.00,0.70,19.64,0.00,2.22,1.86,10.71,0.00,0.00,1.01
0,55.66,18.57,3.33,19.18,8.23,5.00,6.00,7.61,7.89,33.33,3.00,11.22,28.35,0.00,45.00,4.49,0.00,0.00,0.00,0.00,12.49,0.00,0.00,0.72,19.97,0.00,2.22,2.05,10.90,0.00,0.00,1.03
0,53.68,17.14,3.33,17.80,6.54,4.00,5.00,5.97,8.19,33.33,3.00,11.58,29.14,0.00,48.33,4.95,0.00,0.00,0.00,0.00,12.23,0.00,0.00,0.67,19.93,0.00,2.22,2.04,10.79,0.00,0.00,1.04
0,53.51,17.14,3.33,17.91,5.35,3.00,3.00,5.06,8.19,33.33,3.00,11.58,29.74,0.00,50.00,5.20,0.00,0.00,0.00,0.00,12.57,0.00,0.00,0.71,19.74,0.00,2.22,1.98,11.11,0.00,0.00,1.16
0,54.93,18.57,3.33,18.60,3.24,2.00,2.00,2.65,8.19,33.33,3.00,11.58,28.38,0.00,45.00,5.00,0.00,0.00,0.00,0.00,13.28,0.00,0.00,0.79,19.49,0.00,2.22,1.93,11.66,0.00,0.00,1.29
0,51.59,15.71,3.33,15.33,3.18,2.00,2.00,2.64,8.19,33.33,3.00,11.58,29.42,0.00,50.00,5.21,0.00,0.00,0.00,0.00,13.61,0.00,0.00,0.84,19.43,0.00,2.22,1.96,11.87,0.00,0.00,1.36
0,51.16,14.29,3.33,14.81,3.18,2.00,2.00,2.64,8.19,33.33,3.00,11.58,29.38,0.00,53.33,5.17,0.00,0.00,0.00,0.00,14.22,0.00,0.00,0.88,19.00,0.00,2.22,1.89,11.53,0.00,0.00,1.31
0,52.21,17.14,6.67,15.18,3.17,2.00,2.00,2.64,8.19,33.33,3.00,11.58,29.89,0.00,58.33,5.31,0.00,0.00,0.00,0.00,14.14,0.00,0.00,0.99,19.11,0.00,2.22,1.95,12.10,0.00,0.00,1.39
0,55.78,20.00,10.00,17.77,3.18,2.00,2.00,2.64,8.19,33.33,3.00,11.58,30.43,0.00,56.67,5.60,0.00,0.00,0.00,0.00,14.87,0.00,0.00,1.07,19.21,0.00,2.22,1.95,11.97,0.00,0.00,1.35
0,55.36,20.00,10.00,17.79,3.17,2.00,2.00,2.64,8.19,33.33,3.00,11.58,30.77,0.00,60.00,5.74,0.00,0.00,0.00,0.00,14.53,0.00,0.00,1.02,19.18,0.00,0.00,1.95,11.97,0.00,0.00,1.42
0,55.69,20.00,10.00,18.04,3.17,2.00,2.00,2.64,8.19,33.33,3.00,11.58,30.72,0.00,56.67,5.79,0.00,0.00,0.00,0.00,14.82,0.00,0.00,1.06,18.83,0.00,0.00,1.88,12.02,0.00,0.00,1.51
0,55.95,20.00,10.00,18.09,3.17,2.00,2.00,2.64,8.20,33.33,3.00,11.58,30.33,0.00,56.67,5.47,0.00,0.00,0.00,0.00,14.76,0.00,0.00,1.06,18.60,0.00,0.00,1.83,12.00,0.00,0.00,1.53
0,57.46,21.43,10.00,18.49,3.17,2.00,2.00,2.64,8.20,33.33,3.00,11.58,30.23,0.00,56.67,5.24,0.00,0.00,0.00,0.00,14.64,0.00,0.00,1.09,18.93,0.00,0.00,1.84,11.95,0.00,0.00,1.55
0,57.97,21.43,10.00,18.66,3.16,2.00,2.00,2.64,7.00,26.67,2.00,10.57,30.62,0.00,55.00,5.52,0.00,0.00,0.00,0.00,14.11,0.00,0.00,1.03,19.26,0.00,0.00,1.97,11.69,0.00,0.00,1.48
0,57.04,21.43,10.00,18.56,3.16,2.00,2.00,2.64,5.96,20.00,2.00,8.38,31.97,0.00,60.00,5.79,0.00,0.00,0.00,0.00,14.12,0.00,0.00,1.02,19.48,0.00,0.00,1.97,11.54,0.00,0.00,1.46
0,58.16,22.86,10.00,19.43,3.14,2.00,2.00,2.64,5.76,20.00,2.00,8.29,32.17,0.00,60.00,5.87,0.00,0.00,0.00,0.00,14.17,0.00,0.00,1.04,19.03,0.00,0.00,1.94,11.64,0.00,0.00,1.53
0,57.85,24.29,10.00,19.38,4.19,3.00,3.00,3.04,5.69,20.00,2.00,8.28,32.20,0.00,60.00,5.96,0.00,0.00,0.00,0.00,13.96,0.00,0.00,1.04,19.86,0.00,2.22,2.08,11.89,0.00,0.00,1.63
0,55.00,22.86,10.00,17.44,5.70,4.50,4.50,4.31,5.68,20.00,2.00,8.28,31.64,0.00,60.00,5.98,0.00,0.00,0.00,0.00,13.82,0.00,0.00,1.04,19.30,0.00,2.22,2.05,11.73,0.00,0.00,1.61
0,54.38,20.00,10.00,17.36,5.75,4.00,5.00,4.79,5.67,20.00,2.00,8.28,31.36,0.00,60.00,5.83,0.00,0.00,0.00,0.00,14.31,0.00,0.00,1.10,19.28,0.00,2.22,2.07,12.02,0.00,0.00,1.72
0,55.51,21.43,10.00,16.91,6.12,4.00,5.00,5.15,5.67,20.00,2.00,8.28,32.52,0.00,60.00,6.53,0.00,0.00,0.00,0.00,14.49,0.00,0.00,1.14,20.02,0.00,4.44,2.23,12.17,0.00,0.00,1.70
0,54.48,21.43,6.67,17.10,6.13,4.00,5.00,5.15,5.68,20.00,2.00,8.28,32.73,0.00,61.67,6.67,0.00,0.00,0.00,0.00,14.68,0.00,0.00,1.14,20.21,0.00,4.44,2.24,12.39,0.00,0.00,1.71
0,52.30,20.00,6.67,14.65,6.13,4.00,5.00,5.15,4.26,13.33,1.50,7.36,33.15,0.00,65.00,6.75,0.00,0.00,0.00,0.00,14.61,0.00,0.00,1.12,20.14,0.00,4.44,2.15,12.99,0.00,0.00,1.89
0,54.19,21.43,6.67,15.19,6.12,4.00,5.00,5.15,1.36,3.33,0.00,2.60,34.51,0.00,71.67,7.01,0.00,0.00,0.00,0.00,15.23,0.00,0.00,1.18,19.89,0.00,4.44,1.99,12.88,0.00,0.00,1.91
0,56.13,22.86,6.67,15.83,6.11,4.00,5.00,5.15,0.48,0.00,0.00,0.02,34.41,0.00,71.67,6.73,0.00,0.00,0.00,0.00,15.23,0.00,0.00,1.20,20.37,0.00,4.44,2.04,13.70,0.00,0.00,2.08
0,55.51,21.43,6.67,15.77,6.11,4.00,5.00,5.15,0.45,0.00,0.00,0.01,33.93,0.00,71.67,6.40,0.00,0.00,0.00,0.00,14.85,0.00,0.00,1.15,20.27,0.00,4.44,1.99,14.09,0.00,0.00,2.23
0,56.08,22.86,6.67,15.38,6.11,4.00,5.00,5.15,0.47,0.00,0.00,0.01,34.51,0.00,75.00,6.42,0.00,0.00,0.00,0.00,15.38,0.00,0.00,1.27,21.61,0.00,8.89,2.25,13.35,0.00,0.00,2.02
0,57.46,25.71,6.67,15.53,6.12,4.00,5.00,5.15,1.96,6.67,1.00,2.63,34.64,0.00,75.00,6.55,0.00,0.00,0.00,0.00,14.87,0.00,0.00,1.16,21.88,0.00,8.89,2.25,13.11,0.00,0.00,1.96
0,57.96,25.71,6.67,16.13,6.12,4.00,5.00,5.15,4.38,16.67,2.00,6.82,35.30,0.00,73.33,6.96,0.00,0.00,0.00,0.00,14.82,0.00,0.00,1.16,21.90,0.00,8.89,2.24,13.40,0.00,0.00,2.01
0,55.96,22.86,3.33,15.17,6.12,4.00,5.00,5.15,6.14,23.33,3.00,9.64,34.76,0.00,70.00,6.89,0.00,0.00,0.00,0.00,14.30,0.00,0.00,1.02,22.26,0.00,8.89,2.27,13.01,0.00,0.00,1.97
0,53.93,21.43,0.00,14.01,6.13,4.00,5.00,5.15,6.57,26.67,3.00,9.98,34.60,0.00,71.67,6.72,0.00,0.00,0.00,0.00,13.44,0.00,0.00,0.95,22.74,0.00,8.89,2.30,13.08,0.00,0.00,2.03
0,53.58,20.00,0.00,12.61,6.13,4.00,5.00,5.15,6.61,26.67,3.00,9.99,34.53,0.00,70.00,6.73,0.00,0.00,0.00,0.00,13.53,0.00,0.00,0.93,22.21,0.00,8.89,2.21,13.05,0.00,0.00,2.02
0,56.10,22.86,3.33,13.32,6.15,4.00,5.00,5.15,6.59,26.67,3.00,9.98,34.97,0.00,71.67,6.69,0.00,0.00,0.00,0.00,13.59,0.00,0.00,0.93,22.66,0.00,8.89,2.26,12.88,0.00,0.00,1.99
0,56.83,25.71,3.33,13.67,7.80,5.00,6.00,6.70,6.59,26.67,3.00,9.98,35.55,0.00,71.67,7.11,0.00,0.00,0.00,0.00,13.79,0.00,0.00,0.93,22.87,0.00,8.89,2.33,13.15,0.00,0.00,1.99
0,54.94,24.29,3.33,13.31,8.06,5.00,6.00,6.88,6.59,26.67,3.00,9.98,35.53,0.00,71.67,7.18,0.00,0.00,0.00,0.00,13.72,0.00,0.00,0.91,22.54,0.00,8.89,2.28,13.02,0.00,0.00,1.96
0,53.69,22.86,3.33,12.45,8.06,5.00,6.00,6.88,6.98,30.00,3.00,10.10,34.76,0.00,70.00,6.93,0.00,0.00,0.00,0.00,13.95,0.00,0.00,0.95,22.37,0.00,8.89,2.17,13.36,0.00,0.00,2.08
0,54.27,24.29,3.33,12.60,8.08,5.00,6.00,6.88,8.42,33.33,3.50,12.19,34.30,0.00,68.33,6.74,0.00,0.00,0.00,0.00,14.40,0.00,0.00,1.00,22.16,0.00,8.89,2.15,13.60,0.00,0.00,2.15
0,53.99,22.86,3.33,12.59,8.08,5.00,6.00,6.88,10.76,43.33,4.50,16.15,33.90,0.00,68.33,6.64,0.00,0.00,0.00,0.00,14.54,0.00,0.00,1.01,22.17,0.00,8.89,2.15,13.77,0.00,0.00,2.18
0,56.43,25.71,3.33,12.54,7.29,4.00,5.00,6.51,11.03,43.33,4.50,16.50,33.57,0.00,66.67,6.64,0.00,0.00,0.00,0.00,15.13,0.00,0.00,1.06,21.90,0.00,6.67,2.10,13.43,0.00,0.00,2.14
0,57.73,25.71,3.33,12.66,6.11,3.00,3.50,5.70,11.04,43.33,4.50,16.51,33.25,0.00,63.33,6.52,0.00,0.00,0.00,0.00,15.47,0.00,0.00,1.07,22.13,0.00,6.67,2.11,13.67,0.00,0.00,2.24
0,57.33,25.71,3.33,12.62,4.16,2.00,1.50,4.18,11.05,43.33,4.50,16.51,32.86,0.00,61.67,6.32,0.00,0.00,0.00,0.00,15.71,0.00,0.00,1.10,22.01,0.00,6.67,2.06,13.36,0.00,0.00,2.19
0,54.77,22.86,3.33,12.14,2.40,1.00,1.00,1.75,11.04,43.33,4.50,16.51,31.73,0.00,60.00,5.90,0.00,0.00,0.00,0.00,15.88,0.00,0.00,1.09,21.73,0.00,4.44,2.02,13.32,0.00,0.00,2.21
0,60.51,27.14,13.33,15.13,2.36,1.00,1.00,1.74,11.05,43.33,4.50,16.51,31.59,0.00,58.33,5.48,0.00,0.00,0.00,0.00,16.51,0.00,0.00,1.13,22.14,0.00,6.67,2.03,13.17,0.00,0.00,2.25
0,61.87,28.57,13.33,16.11,2.35,1.00,1.00,1.74,11.03,43.33,4.50,16.51,31.67,0.00,56.67,5.54,0.00,0.00,0.00,0.00,16.82,0.00,0.00,1.26,22.37,0.00,6.67,2.09,13.49,0.00,0.00,2.29
0,60.38,25.71,13.33,15.81,2.35,1.00,1.00,1.74,11.03,43.33,4.50,16.51,29.76,0.00,48.33,5.11,0.00,0.00,0.00,0.00,16.96,0.00,0.00,1.30,22.85,0.00,8.89,2.22,13.23,0.00,0.00,2.22
0,58.27,24.29,13.33,14.95,2.36,1.00,1.00,1.74,11.03,43.33,4.50,16.51,28.91,0.00,45.00,4.89,0.00,0.00,0.00,0.00,16.63,0.00,0.00,1.22,22.52,0.00,8.89,2.18,13.04,0.00,0.00,2.21
0,58.40,25.71,13.33,14.67,2.36,1.00,1.00,1.74,11.04,43.33,4.50,16.51,28.15,0.00,43.33,4.81,0.00,0.00,0.00,0.00,16.88,0.00,0.00,1.23,22.49,0.00,8.89,2.15,12.47,0.00,0.00,1.98
0,57.80,24.29,16.67,15.01,2.36,1.00,1.00,1.74,11.01,43.33,4.50,16.50,27.64,0.00,38.33,4.72,0.00,0.00,0.00,0.00,15.66,0.00,0.00,1.07,21.59,0.00,4.44,1.95,12.66,0.00,0.00,2.02
0,56.93,22.86,16.67,14.82,2.37,1.00,1.00,1.74,10.60,40.00,4.00,16.51,26.64,0.00,36.67,4.34,0.00,0.00,0.00,0.00,15.50,0.00,0.00,1.06,21.26,0.00,4.44,1.94,12.83,0.00,0.00,2.08
0,55.79,21.43,16.67,14.41,2.37,1.00,1.00,1.74,7.75,30.00,2.50,11.93,25.27,0.00,35.00,3.78,0.00,0.00,0.00,0.00,15.63,0.00,0.00,1.08,20.95,0.00,4.44,1.91,12.61,0.00,0.00,2.02
0,56.66,21.43,16.67,14.54,2.36,1.00,1.00,1.74,5.77,23.33,1.50,7.36,25.47,0.00,35.00,3.71,0.00,0.00,0.00,0.00,16.03,0.00,0.00,1.12,20.55,0.00,4.44,1.82,12.72,0.00,0.00,2.06
0,56.10,21.43,16.67,14.30,2.37,1.00,1.00,1.74,4.99,16.67,1.50,6.55,25.06,0.00,31.67,3.66,0.00,0.00,0.00,0.00,16.03,0.00,0.00,1.14,20.43,0.00,4.44,1.83,12.69,0.00,0.00,2.02
0,57.63,22.86,16.67,14.95,3.32,2.00,2.00,2.10,4.93,16.67,1.50,6.53,24.21,0.00,28.33,3.35,0.00,0.00,0.00,0.00,16.21,0.00,0.00,1.17,20.69,0.00,4.44,1.87,12.93,0.00,0.00,2.07
0,54.68,20.00,13.33,13.99,5.33,3.50,4.00,3.38,4.93,16.67,1.50,6.53,24.68,0.00,33.33,3.45,0.00,0.00,0.00,0.00,15.95,0.00,0.00,1.15,20.59,0.00,4.44,1.86,12.69,0.00,0.00,2.01
0,54.03,17.14,13.33,13.67,6.33,4.00,5.00,6.09,4.93,16.67,1.50,6.53,24.30,0.00,33.33,3.20,0.00,0.00,0.00,0.00,15.86,0.00,0.00,1.16,20.49,0.00,4.44,1.83,12.36,0.00,0.00,1.96
0,55.96,17.14,13.33,14.08,6.29,4.00,5.00,5.58,4.95,16.67,1.50,6.53,23.90,0.00,31.67,3.05,0.00,0.00,0.00,0.00,15.67,0.00,0.00,1.13,20.42,0.00,4.44,1.80,12.44,0.00,0.00,2.00
0,58.87,20.00,13.33,15.44,6.29,4.00,5.00,5.58,4.94,16.67,1.50,6.53,24.17,0.00,33.33,3.16,0.00,0.00,0.00,0.00,15.64,0.00,0.00,1.12,20.11,0.00,4.44,1.76,12.19,0.00,0.00,1.95
0,59.43,20.00,13.33,15.29,6.28,4.00,5.00,5.58,4.02,13.33,1.00,6.22,23.84,0.00,31.67,3.09,0.00,0.00,0.00,0.00,15.66,0.00,0.00,1.09,20.53,0.00,4.44,1.79,11.99,0.00,0.00,1.87
0,60.09,21.43,13.33,15.66,6.28,4.00,5.00,5.58,1.38,3.33,0.00,2.54,24.36,0.00,31.67,3.24,0.00,0.00,0.00,0.00,15.45,0.00,0.00,1.05,21.60,0.00,4.44,1.99,11.99,0.00,0.00,1.83
0,60.45,21.43,16.67,16.04,6.28,4.00,5.00,5.58,0.51,0.00,0.00,0.02,24.45,0.00,35.00,3.23,0.00,0.00,0.00,0.00,15.49,0.00,0.00,1.06,20.97,0.00,4.44,1.91,12.11,0.00,0.00,1.83
0,59.25,21.43,16.67,16.92,6.28,4.00,5.00,5.58,0.48,0.00,0.00,0.01,24.47,0.00,35.00,3.20,0.00,0.00,0.00,0.00,15.62,0.00,0.00,1.07,20.84,0.00,4.44,1.87,11.88,0.00,0.00,1.73
0,59.72,22.86,16.67,17.52,6.27,4.00,5.00,5.58,0.47,0.00,0.00,0.01,24.33,0.00,35.00,3.17,0.00,0.00,0.00,0.00,15.20,0.00,0.00,1.03,20.58,0.00,4.44,1.88,11.73,0.00,0.00,1.67
0,63.43,27.14,16.67,18.75,6.27,4.00,5.00,5.58,0.47,0.00,0.00,0.01,24.68,0.00,38.33,3.26,0.00,0.00,0.00,0.00,14.65,0.00,0.00,0.98,20.49,0.00,4.44,1.80,11.65,0.00,0.00,1.67
0,60.93,27.14,10.00,17.27,6.30,4.00,5.00,5.58,2.37,6.67,1.00,3.11,23.93,0.00,38.33,3.07,0.00,0.00,0.00,0.00,14.24,0.00,0.00,0.98,20.18,0.00,2.22,1.73,11.64,0.00,0.00,1.60
0,60.51,25.71,10.00,16.19,6.30,4.00,5.00,5.58,3.88,13.33,1.50,5.28,24.00,0.00,38.33,3.15,0.00,0.00,0.00,0.00,13.90,0.00,0.00,0.86,20.29,0.00,2.22,1.74,11.16,0.00,0.00,1.49
0,61.41,28.57,10.00,16.99,6.29,4.00,5.00,5.58,4.36,16.67,1.50,5.61,24.44,0.00,38.33,3.25,0.00,0.00,0.00,0.00,13.43,0.00,0.00,0.81,20.08,0.00,2.22,1.72,11.23,0.00,0.00,1.50
0,61.63,28.57,10.00,17.01,6.29,4.00,5.00,5.58,4.70,20.00,1.50,5.72,24.56,0.00,38.33,3.32,0.00,0.00,0.00,0.00,13.39,0.00,0.00,0.79,19.86,0.00,2.22,1.67,11.17,0.00,0.00,1.48
0,62.79,30.00,10.00,17.54,7.77,4.50,6.00,7.32,4.71,20.00,1.50,5.72,25.49,0.00,41.67,3.58,0.00,0.00,0.00,0.00,13.62,0.00,0.00,0.83,20.05,0.00,2.22,1.69,11.30,0.00,0.00,1.53
0,63.75,28.57,10.00,18.12,10.01,6.00,7.50,9.75,4.70,20.00,1.50,5.72,25.75,0.00,41.67,3.72,0.00,0.00,0.00,0.00,13.75,0.00,0.00,0.84,19.86,0.00,2.22,1.75,11.48,0.00,0.00,1.55
0,67.62,31.43,10.00,19.86,10.44,6.50,7.50,10.03,4.69,20.00,1.50,5.72,25.93,0.00,40.00,3.73,0.00,0.00,0.00,0.00,13.93,0.00,0.00,0.86,20.40,0.00,4.44,1.84,11.61,0.00,0.00,1.59
0,67.43,31.43,10.00,20.09,10.47,6.50,7.50,10.04,5.17,23.33,1.50,5.90,26.69,0.00,41.67,3.95,0.00,0.00,0.00,0.00,14.04,0.00,0.00,0.85,20.90,0.00,4.44,1.97,12.00,0.00,0.00,1.60
0,71.56,37.14,16.67,21.51,10.47,6.50,7.50,10.04,6.74,30.00,2.50,8.35,27.19,0.00,43.33,4.14,0.00,0.00,0.00,0.00,13.98,0.00,0.00,0.84,20.97,0.00,4.44,1.98,11.94,0.00,0.00,1.66
0,72.12,38.57,16.67,21.72,10.47,6.50,7.50,10.04,9.07,40.00,3.50,12.39,27.59,0.00,45.00,4.23,0.00,0.00,0.00,0.00,14.12,0.00,0.00,0.83,20.66,0.00,4.44,1.94,12.17,0.00,0.00,1.69
0,72.51,38.57,16.67,21.83,9.72,5.50,6.50,9.70,9.38,40.00,3.50,12.75,27.86,0.00,45.00,4.38,0.00,0.00,0.00,0.00,13.67,0.00,0.00,0.75,20.78,0.00,4.44,2.03,11.56,0.00,0.00,1.54
0,74.69,42.86,16.67,22.78,8.71,4.50,5.00,9.11,9.39,40.00,3.50,12.75,27.09,0.00,41.67,4.22,0.00,0.00,0.00,0.00,13.83,0.00,0.00,0.77,20.47,0.00,4.44,2.01,11.78,0.00,0.00,1.56
0,74.20,42.86,16.67,22.62,6.44,3.50,3.00,6.94,9.39,40.00,3.50,12.75,27.11,0.00,41.67,4.21,0.00,0.00,0.00,0.00,13.82,0.00,0.00,0.76,20.56,0.00,6.67,2.10,11.56,0.00,0.00,1.52
0,73.79,44.29,16.67,22.49,4.66,2.50,2.50,4.47,9.38,40.00,3.50,12.75,27.28,0.00,41.67,4.22,0.00,0.00,0.00,0.00,13.68,0.00,0.00,0.75,20.55,0.00,6.67,2.17,11.48,0.00,0.00,1.47
0,75.51,44.29,20.00,23.81,4.62,2.50,2.50,4.46,9.37,40.00,3.50,12.75,27.02,0.00,41.67,4.09,0.00,0.00,0.00,0.00,13.72,0.00,0.00,0.75,20.34,0.00,6.67,2.15,11.48,0.00,0.00,1.47
0,76.49,45.71,20.00,24.57,4.62,2.50,2.50,4.46,9.38,40.00,3.50,12.75,27.59,0.00,41.67,4.28,0.00,0.00,0.00,0.00,13.76,0.00,0.00,0.77,20.68,0.00,8.89,2.24,11.71,0.00,0.00,1.49
0,74.31,42.86,20.00,23.99,4.61,2.50,2.50,4.46,9.38,40.00,3.50,12.75,28.16,0.00,43.33,4.45,0.00,0.00,0.00,0.00,13.72,0.00,0.00,0.77,20.21,0.00,8.89,2.15,11.75,0.00,0.00,1.49
0,73.03,41.43,16.67,24.17,4.61,2.50,2.50,4.46,9.38,40.00,3.50,12.75,27.43,0.00,40.00,4.20,0.00,0.00,0.00,0.00,13.05,0.00,0.00,0.70,20.09,0.00,8.89,2.06,12.11,0.00,0.00,1.57
0,69.97,38.57,16.67,21.63,4.61,2.50,2.50,4.46,9.38,40.00,3.50,12.75,26.95,0.00,40.00,4.16,0.00,0.00,0.00,0.00,12.67,0.00,0.00,0.67,20.38,0.00,8.89,2.12,12.59,0.00,0.00,1.65
0,69.78,37.14,16.67,21.28,4.61,2.50,2.50,4.46,9.38,40.00,3.50,12.75,27.05,0.00,40.00,4.25,0.00,0.00,0.00,0.00,12.25,0.00,0.00,0.63,20.97,0.00,8.89,2.33,12.64,0.00,0.00,1.58
0,67.06,34.29,16.67,20.41,4.61,2.50,2.50,4.46,9.38,40.00,3.50,12.75,27.18,0.00,41.67,4.18,0.00,0.00,0.00,0.00,12.20,0.00,0.00,0.63,20.75,0.00,8.89,2.35,12.59,0.00,0.00,1.56
0,67.33,31.43,16.67,19.88,4.58,2.50,2.50,4.46,8.08,36.67,2.50,11.57,27.16,0.00,41.67,4.23,0.00,0.00,0.00,0.00,11.71,0.00,0.00,0.58,20.80,0.00,8.89,2.36,12.91,0.00,0.00,1.57
0,70.09,32.86,20.00,22.96,4.58,2.50,2.50,4.46,6.32,30.00,2.00,7.85,28.19,0.00,43.33,4.44,0.00,0.00,0.00,0.00,11.82,0.00,0.00,0.59,21.08,0.00,8.89,2.40,12.56,0.00,0.00,1.54
0,68.43,31.43,20.00,21.91,4.59,2.50,2.50,4.46,5.54,23.33,2.00,7.17,28.54,0.00,46.67,4.41,0.00,0.00,0.00,0.00,11.84,0.00,0.00,0.62,20.96,0.00,8.89,2.40,12.41,0.00,0.00,1.51
0,67.48,30.00,20.00,21.51,4.59,2.50,2.50,4.46,5.21,20.00,2.00,7.05,28.19,0.00,45.00,4.28,0.00,0.00,0.00,0.00,11.58,0.00,0.00,0.61,20.46,0.00,6.67,2.32,12.17,0.00,0.00,1.44
0,67.70,30.00,20.00,21.66,4.55,3.00,2.50,4.52,5.17,20.00,2.00,7.04,28.21,0.00,45.00,4.24,0.00,0.00,0.00,0.00,11.33,0.00,0.00,0.59,20.33,0.00,6.67,2.38,12.50,0.00,0.00,1.43
0,71.06,34.29,20.00,23.09,2.95,2.00,1.50,2.49,5.17,20.00,2.00,7.04,28.03,0.00,45.00,4.07,0.00,0.00,0.00,0.00,10.87,0.00,0.00,0.54,20.18,0.00,6.67,2.33,12.28,0.00,0.00,1.42
0,67.93,32.86,23.33,20.85,2.48,1.50,1.50,1.23,5.17,20.00,2.00,7.04,27.64,0.00,43.33,4.05,0.00,0.00,0.00,0.00,10.87,0.00,0.00,0.54,19.67,0.00,4.44,2.23,12.16,0.00,0.00,1.39
0,67.67,32.86,23.33,20.68,2.37,1.50,1.50,1.20,5.18,20.00,2.00,7.04,27.48,0.00,45.00,3.93,0.00,0.00,0.00,0.00,10.72,0.00,0.00,0.54,20.18,0.00,6.67,2.24,11.78,0.00,0.00,1.30
0,64.80,31.43,16.67,19.50,2.37,1.50,1.50,1.20,4.06,13.33,1.50,6.53,26.75,0.00,43.33,3.74,0.00,0.00,0.00,0.00,10.52,0.00,0.00,0.53,20.37,0.00,6.67,2.25,11.32,0.00,0.00,1.18
0,65.94,32.86,16.67,20.55,2.36,1.50,1.50,1.20,1.36,3.33,0.00,2.56,27.11,0.00,45.00,3.87,0.00,0.00,0.00,0.00,10.29,0.00,0.00,0.53,19.72,0.00,6.67,2.22,11.23,0.00,0.00,1.19
0,64.26,30.00,16.67,19.51,2.36,1.50,1.50,1.20,0.47,0.00,0.00,0.01,27.84,0.00,46.67,4.04,0.00,0.00,0.00,0.00,10.44,0.00,0.00,0.53,19.83,0.00,6.67,2.18,11.36,0.00,0.00,1.16
0,64.63,28.57,20.00,20.09,2.37,1.50,1.50,1.20,0.44,0.00,0.00,0.01,28.98,0.00,48.33,4.58,0.00,0.00,0.00,0.00,10.52,0.00,0.00,0.52,20.15,0.00,6.67,2.26,11.37,0.00,0.00,1.17
0,63.49,28.57,20.00,19.87,2.37,1.50,1.50,1.20,0.44,0.00,0.00,0.01,28.50,0.00,45.00,4.53,0.00,0.00,0.00,0.00,10.45,0.00,0.00,0.51,20.41,0.00,4.44,2.26,11.54,0.00,0.00,1.18
0,65.54,30.00,20.00,21.06,2.38,1.50,1.50,1.20,0.44,0.00,0.00,0.01,28.49,0.00,45.00,4.50,0.00,0.00,0.00,0.00,10.89,0.00,0.00,0.53,20.57,0.00,4.44,2.22,11.75,0.00,0.00,1.20
0,66.75,31.43,20.00,22.51,2.39,1.50,1.50,1.20,2.34,6.67,1.00,3.12,28.12,0.00,45.00,4.42,0.00,0.00,0.00,0.00,11.10,0.00,0.00,0.54,21.03,0.00,4.44,2.25,11.57,0.00,0.00,1.21
0,65.35,32.86,20.00,21.87,2.40,1.50,1.50,1.20,4.41,13.33,2.00,6.93,28.28,0.00,45.00,4.38,0.00,0.00,0.00,0.00,11.31,0.00,0.00,0.57,21.15,0.00,4.44,2.28,11.67,0.00,0.00,1.21
0,65.99,34.29,20.00,21.87,2.40,1.50,1.50,1.20,5.01,16.67,2.00,7.49,27.22,0.00,41.67,4.07,0.00,0.00,0.00,0.00,11.46,0.00,0.00,0.56,21.55,0.00,6.67,2.35,11.62,0.00,0.00,1.20
0,65.79,34.29,20.00,21.65,2.40,1.50,1.50,1.20,5.95,23.33,2.00,8.23,27.05,0.00,40.00,4.04,0.00,0.00,0.00,0.00,11.70,0.00,0.00,0.59,21.62,0.00,6.67,2.37,11.46,0.00,0.00,1.14
0,68.65,34.29,20.00,22.27,3.88,2.00,2.50,2.95,5.98,23.33,2.00,8.23,27.85,0.00,40.00,4.34,0.00,0.00,0.00,0.00,12.23,0.00,0.00,0.66,21.74,0.00,6.67,2.41,11.43,0.00,0.00,1.12
0,71.71,37.14,20.00,23.48,5.97,3.50,4.00,5.07,5.97,23.33,2.00,8.23,28.88,0.00,46.67,4.69,0.00,0.00,0.00,0.00,11.89,0.00,0.00,0.63,21.10,0.00,6.67,2.24,11.16,0.00,0.00,1.11
0,72.37,37.14,20.00,23.77,7.00,4.50,5.00,5.81,5.97,23.33,2.00,8.23,28.61,0.00,46.67,4.62,0.00,0.00,0.00,0.00,12.18,0.00,0.00,0.64,21.21,0.00,6.67,2.18,11.21,0.00,0.00,1.14
0,72.67,38.57,20.00,24.97,7.12,4.50,5.00,5.85,5.98,23.33,2.00,8.24,27.87,0.00,43.33,4.45,0.00,0.00,0.00,0.00,12.51,0.00,0.00,0.66,21.38,0.00,6.67,2.19,11.24,0.00,0.00,1.13
0,69.67,37.14,13.33,23.59,7.14,4.50,5.00,5.85,6.72,26.67,2.00,8.88,26.87,0.00,38.33,4.16,0.00,0.00,0.00,0.00,12.66,0.00,0.00,0.67,21.33,0.00,6.67,2.27,10.94,0.00,0.00,1.08
0,72.32,40.00,16.67,25.31,7.13,4.50,5.00,5.85,8.79,36.67,3.00,12.10,27.35,0.00,36.67,4.50,0.00,0.00,0.00,0.00,12.47,0.00,0.00,0.65,21.36,0.00,6.67,2.35,10.82,0.00,0.00,1.07
0,73.42,42.86,16.67,25.52,7.13,4.50,5.00,5.85,10.88,43.33,4.00,15.90,27.28,0.00,36.67,4.54,0.00,0.00,0.00,0.00,12.92,0.00,0.00,0.69,21.60,0.00,6.67,2.38,11.26,0.00,0.00,1.13
0,75.15,45.71,16.67,26.34,7.13,4.50,5.00,5.85,11.11,43.33,4.00,16.17,27.25,0.00,35.00,4.60,0.00,0.00,0.00,0.00,13.12,0.00,0.00,0.71,21.23,0.00,6.67,2.30,11.09,0.00,0.00,1.14
0,73.05,42.86,16.67,25.64,6.31,4.00,4.00,5.66,11.11,43.33,4.00,16.17,27.58,0.00,36.67,4.60,0.00,0.00,0.00,0.00,13.63,0.00,0.00,0.76,21.63,0.00,6.67,2.34,10.90,0.00,0.00,1.11
0,72.04,41.43,10.00,25.19,5.19,3.00,3.50,4.66,11.11,43.33,4.00,16.17,28.19,0.00,40.00,4.70,0.01,0.00,0.00,0.00,14.11,0.00,0.00,0.87,22.01,0.00,6.67,2.37,11.10,0.00,0.00,1.23
0,72.95,41.43,10.00,26.48,5.17,3.00,3.50,4.65,11.11,43.33,4.00,16.17,28.30,0.00,38.33,4.88,0.02,0.00,0.00,0.00,14.14,0.00,0.00,0.89,21.65,0.00,4.44,2.48,11.16,0.00,0.00,1.23
0,75.19,42.86,10.00,27.78,5.16,3.00,3.50,4.65,11.11,43.33,4.00,16.17,28.65,0.00,40.00,4.97,0.02,0.00,0.00,0.00,15.66,0.00,0.00,1.11,22.26,0.00,4.44,2.61,11.36,0.00,0.00,1.28
0,75.39,42.86,10.00,27.41,5.16,3.00,3.50,4.65,11.11,43.33,4.00,16.17,27.82,0.00,38.33,4.75,0.02,0.00,0.00,0.00,16.24,0.00,0.00,1.16,22.22,0.00,4.44,2.56,11.80,0.00,0.00,1.35
0,77.82,45.71,16.67,29.91,5.16,3.00,3.50,4.65,11.11,43.33,4.00,16.17,27.60,0.00,38.33,4.62,0.02,0.00,0.00,0.00,16.79,0.00,0.00,1.23,22.63,0.00,4.44,2.60,11.92,0.00,0.00,1.42
0,76.14,45.71,13.33,28.77,5.16,3.00,3.50,4.65,11.12,43.33,4.00,16.17,26.64,0.00,36.67,4.25,0.02,0.00,0.00,0.00,18.24,3.33,0.00,1.58,22.96,0.00,6.67,2.60,12.05,0.00,0.00,1.44
0,76.29,45.71,13.33,28.79,5.16,3.00,3.50,4.65,11.12,43.33,4.00,16.17,26.95,0.00,38.33,4.24,0.02,0.00,0.00,0.00,19.34,3.33,0.00,1.84,22.93,0.00,6.67,2.71,12.39,0.00,0.00,1.58
0,76.54,45.71,13.33,28.80,5.17,3.00,3.50,4.65,11.11,43.33,4.00,16.17,27.37,0.00,40.00,4.25,0.02,0.00,0.00,0.00,20.41,3.33,0.00,2.10,22.50,0.00,6.67,2.69,12.51,0.00,0.00,1.63
0,78.49,48.57,16.67,30.16,5.16,3.00,3.50,4.65,9.80,40.00,3.00,15.00,27.32,0.00,38.33,4.32,0.02,0.00,0.00,0.00,21.88,3.33,0.00,2.43,22.65,0.00,6.67,2.84,12.69,0.00,0.00,1.66
0,78.02,45.71,16.67,29.29,5.16,3.00,3.50,4.65,7.62,33.33,2.00,9.93,29.48,5.00,40.00,4.95,0.14,0.00,0.00,0.03,22.11,3.33,0.00,2.52,22.76,0.00,4.44,2.87,13.42,0.00,0.00,1.82
0,79.88,47.14,16.67,29.94,5.34,3.00,3.50,4.68,6.59,26.67,2.00,8.71,30.37,5.00,45.00,5.58,0.16,0.00,0.00,0.04,23.12,6.67,0.00,2.93,22.06,0.00,2.22,2.80,13.84,0.00,0.00,1.97
0,81.35,48.57,16.67,30.87,6.41,4.00,4.50,5.04,5.69,20.00,2.00,8.00,33.04,5.00,53.33,6.53,0.19,0.00,0.00,0.04,26.55,13.33,0.00,3.90,22.51,0.00,2.22,2.84,14.36,0.00,0.00,2.18
0,85.33,54.29,23.33,35.81,8.53,5.50,6.00,7.24,5.58,20.00,2.00,7.94,34.22,5.00,56.67,6.87,0.41,0.00,0.00,0.14,30.31,23.33,10.00,5.49,23.81,0.00,6.67,3.20,15.42,0.00,0.00,2.59
0,87.71,58.57,30.00,38.37,6.75,4.50,4.50,6.10,5.59,20.00,2.00,7.94,36.37,5.00,60.00,7.68,0.43,0.00,0.00,0.14,33.30,30.00,10.00,5.99,24.53,0.00,11.11,3.71,17.15,0.00,0.00,3.60
0,90.75,61.43,33.33,39.88,5.47,3.50,3.50,4.43,5.59,20.00,2.00,7.94,39.01,5.00,63.33,8.40,0.43,0.00,0.00,0.14,37.87,36.67,20.00,8.97,27.20,2.22,15.56,6.26,19.60,3.33,0.00,5.55
0,94.20,64.29,40.00,43.11,5.12,3.00,3.50,4.27,5.58,20.00,2.00,7.94,42.62,10.00,70.00,10.20,0.43,0.00,0.00,0.14,41.26,40.00,20.00,10.17,33.80,6.67,22.22,13.37,22.82,10.00,8.33,8.91
0,89.91,60.00,40.00,39.66,5.11,3.00,3.50,4.27,5.37,20.00,2.00,7.94,45.54,10.00,76.67,12.18,0.43,0.00,0.00,0.14,42.46,40.00,20.00,10.48,40.64,11.11,28.89,19.67,28.37,20.00,16.67,15.97
0,88.35,60.00,36.67,39.06,5.09,3.00,3.50,4.27,4.25,20.00,1.00,6.70,45.01,10.00,75.00,12.05,0.50,0.00,0.00,0.16,45.72,43.33,20.00,12.03,48.40,13.33,33.33,29.47,32.04,23.33,25.00,20.58
0,90.27,58.57,40.00,40.59,5.12,3.00,3.50,4.27,3.28,20.00,0.00,2.95,45.50,10.00,78.33,12.12,0.76,0.00,0.00,0.30,48.71,46.67,20.00,12.87,51.68,15.56,40.00,31.17,33.57,26.67,25.00,21.69
0,93.73,58.57,43.33,42.20,5.14,3.00,3.50,4.27,4.42,23.33,1.00,4.92,48.30,15.00,83.33,13.45,0.77,0.00,0.00,0.30,50.63,46.67,20.00,13.25,54.24,15.56,42.22,32.28,34.93,26.67,25.00,22.62
1,100.09,61.43,53.33,47.05,6.41,3.50,4.50,5.54,4.68,23.33,1.00,5.02,48.81,15.00,83.33,13.77,0.77,0.00,0.00,0.30,51.96,46.67,20.00,13.40,57.45,17.78,46.67,34.02,36.68,30.00,25.00,23.85
1,103.09,62.86,60.00,50.73,7.48,5.00,5.50,6.23,4.68,23.33,1.00,5.02,49.11,15.00,80.00,14.02,0.76,0.00,0.00,0.30,52.54,50.00,20.00,13.72,58.75,17.78,46.67,34.38,37.39,30.00,25.00,24.20
1,105.10,65.71,63.33,51.75,7.59,5.00,5.50,6.27,5.18,26.67,1.00,5.19,50.33,15.00,85.00,14.57,0.76,0.00,0.00,0.30,55.77,56.67,25.00,14.84,60.82,20.00,51.11,35.43,38.47,30.00,25.00,24.66
1,105.77,65.71,66.67,51.61,7.59,5.00,5.50,6.27,6.81,33.33,1.50,6.55,50.96,15.00,85.00,14.85,0.76,0.00,0.00,0.30,56.45,56.67,25.00,15.09,62.05,20.00,55.56,36.09,39.20,30.00,25.00,24.94
1,110.92,68.57,73.33,55.78,7.59,5.00,5.50,6.27,7.64,36.67,2.00,8.87,53.17,15.00,90.00,15.83,0.76,0.00,0.00,0.30,57.49,56.67,25.00,15.25,65.38,22.22,62.22,38.48,42.16,40.00,25.00,27.70
1,108.87,65.71,66.67,53.71,7.59,5.00,5.50,6.27,7.68,36.67,2.00,8.88,52.99,15.00,90.00,15.68,0.76,0.00,0.00,0.30,58.66,56.67,25.00,15.50,66.30,22.22,66.67,38.64,42.98,40.00,25.00,28.14
1,114.49,70.00,76.67,56.36,7.58,5.00,5.50,6.27,7.68,36.67,2.00,8.88,54.28,15.00,93.33,16.25,0.76,0.00,0.00,0.30,59.61,56.67,25.00,15.90,66.36,22.22,64.44,38.93,43.95,40.00,25.00,28.42
1,119.39,74.29,80.00,59.29,7.58,5.00,5.50,6.27,7.67,36.67,2.00,8.88,55.87,15.00,98.33,16.54,0.76,0.00,0.00,0.30,61.42,60.00,25.00,16.22,71.37,26.67,71.11,42.53,46.27,46.67,25.00,30.98
1,120.45,74.29,80.00,61.32,7.58,5.00,5.50,6.27,7.67,36.67,2.00,8.88,56.82,15.00,101.67,17.26,0.76,0.00,0.00,0.30,62.26,66.67,25.00,16.67,74.80,28.89,80.00,44.83,47.89,50.00,25.00,33.37
1,118.85,71.43,73.33,58.48,7.60,5.00,5.50,6.27,7.68,36.67,2.00,8.88,57.88,15.00,105.00,17.65,0.76,0.00,0.00,0.30,63.55,73.33,30.00,16.71,76.43,31.11,84.44,45.36,49.62,56.67,25.00,33.94
1,122.75,75.71,80.00,63.49,7.59,5.00,5.50,6.27,7.68,36.67,2.00,8.88,58.10,15.00,105.00,17.43,0.67,0.00,0.00,0.29,66.26,76.67,35.00,18.65,78.05,31.11,93.33,45.72,50.29,63.33,25.00,34.51
1,124.39,75.71,83.33,66.34,7.42,5.00,5.50,6.25,7.68,36.67,2.00,8.88,56.77,10.00,103.33,17.10,0.62,0.00,0.00,0.26,67.19,76.67,35.00,18.89,83.25,40.00,100.00,48.56,50.52,63.33,25.00,34.76
1,126.36,77.14,83.33,67.70,6.66,4.00,4.50,5.91,7.68,36.67,2.00,8.88,55.44,10.00,96.67,16.82,0.59,0.00,0.00,0.26,66.03,76.67,35.00,18.47,84.19,40.00,104.44,48.77,51.69,66.67,25.00,35.33
1,122.41,74.29,76.67,64.91,5.95,4.00,4.00,4.91,7.67,36.67,2.00,8.88,53.47,10.00,93.33,15.94,0.38,0.00,0.00,0.17,62.70,63.33,25.00,17.30,85.21,40.00,104.44,49.16,51.75,70.00,25.00,35.59
1,125.09,75.71,83.33,66.31,6.05,4.00,5.00,4.46,7.68,36.67,2.00,8.88,49.52,10.00,81.67,14.60,0.35,0.00,0.00,0.16,61.29,60.00,25.00,17.06,86.75,40.00,111.11,49.42,52.30,73.33,25.00,35.55
1,124.03,74.29,80.00,65.99,7.76,5.00,6.00,6.91,7.67,36.67,2.00,8.88,48.25,10.00,78.33,14.07,0.35,0.00,0.00,0.16,61.75,66.67,20.00,17.45,85.85,37.78,111.11,47.96,52.30,80.00,25.00,35.82
1,123.87,74.29,76.67,64.12,7.80,5.00,6.00,6.92,7.67,36.67,2.00,8.88,45.88,5.00,71.67,12.85,0.35,0.00,0.00,0.16,59.83,66.67,15.00,15.69,83.72,35.56,111.11,44.32,49.17,73.33,16.67,32.59
1,130.47,81.43,93.33,66.65,7.80,5.00,6.00,6.92,7.67,36.67,2.00,8.88,44.52,5.00,68.33,11.90,0.35,0.00,0.00,0.16,59.54,63.33,15.00,15.59,79.20,33.33,111.11,37.49,47.90,66.67,16.67,29.48
1,131.72,82.86,93.33,66.88,7.80,5.00,6.00,6.92,6.98,30.00,2.00,8.30,44.03,5.00,73.33,11.52,0.27,0.00,0.00,0.14,57.29,60.00,15.00,14.22,73.09,31.11,108.89,29.02,43.69,66.67,0.00,22.60
1,133.46,85.71,93.33,66.55,7.79,5.00,6.00,6.92,5.65,20.00,2.00,7.00,44.14,5.00,75.00,11.55,0.03,0.00,0.00,0.01,55.97,60.00,15.00,13.73,71.74,28.89,106.67,27.61,42.62,63.33,0.00,22.29
1,133.48,87.14,93.33,67.63,7.77,5.00,6.00,6.92,4.86,20.00,1.00,5.09,43.21,5.00,75.00,11.12,0.00,0.00,0.00,0.00,55.53,60.00,15.00,13.72,70.91,28.89,108.89,26.78,41.40,63.33,0.00,21.01
1,128.68,87.14,86.67,62.65,7.82,5.00,5.50,6.92,4.61,20.00,1.00,4.86,40.57,0.00,75.00,9.74,0.00,0.00,0.00,0.00,56.05,60.00,15.00,14.06,72.02,31.11,108.89,27.62,44.18,66.67,8.33,24.78
1,125.52,87.14,80.00,59.11,8.58,5.00,6.00,7.88,4.59,20.00,1.00,4.86,41.04,0.00,78.33,9.64,0.00,0.00,0.00,0.00,55.64,56.67,15.00,13.90,70.31,28.89,111.11,26.13,42.46,63.33,8.33,23.34
1,122.78,85.71,76.67,57.19,8.94,5.00,6.50,8.66,4.17,16.67,1.00,4.70,39.57,0.00,75.00,9.07,0.00,0.00,0.00,0.00,54.93,53.33,10.00,13.88,70.89,31.11,113.33,26.32,43.84,70.00,8.33,24.58
1,127.20,87.14,76.67,61.17,8.96,5.00,6.50,8.66,5.38,20.00,1.50,6.71,40.29,0.00,75.00,9.40,0.00,0.00,0.00,0.00,54.14,50.00,10.00,13.33,70.25,31.11,108.89,26.15,43.63,73.33,8.33,25.22
1,125.42,87.14,76.67,60.62,8.95,5.00,6.50,8.66,3.37,13.33,0.50,3.22,39.00,0.00,70.00,8.54,0.00,0.00,0.00,0.00,53.26,50.00,10.00,13.22,68.29,28.89,104.44,24.44,42.03,70.00,8.33,23.37
1,121.60,84.29,76.67,57.23,8.96,5.00,6.50,8.66,3.32,13.33,0.50,3.21,38.25,0.00,66.67,8.35,0.00,0.00,0.00,0.00,54.28,60.00,10.00,13.72,68.08,28.89,102.22,24.22,41.40,66.67,8.33,22.66
1,121.36,87.14,73.33,58.06,8.96,5.00,6.50,8.66,3.32,13.33,0.50,3.21,38.37,0.00,68.33,8.40,0.00,0.00,0.00,0.00,53.07,56.67,10.00,13.28,68.83,28.89,104.44,24.67,42.14,70.00,8.33,23.28
1,118.17,85.71,70.00,55.32,8.96,5.00,6.50,8.66,3.32,13.33,0.50,3.21,37.30,0.00,61.67,8.43,0.00,0.00,0.00,0.00,52.04,56.67,10.00,12.86,65.87,26.67,104.44,23.10,41.50,66.67,8.33,23.06
1,118.44,87.14,73.33,54.58,8.96,5.00,6.50,8.66,3.33,13.33,0.50,3.21,35.96,0.00,60.00,7.59,0.00,0.00,0.00,0.00,50.39,50.00,10.00,12.43,64.87,24.44,102.22,20.31,38.50,60.00,8.33,18.52
1,117.35,87.14,73.33,53.73,8.92,5.00,6.50,8.66,3.33,13.33,0.50,3.21,34.14,0.00,51.67,7.26,0.00,0.00,0.00,0.00,50.59,46.67,10.00,12.38,61.39,20.00,100.00,18.63,38.66,60.00,8.33,18.51
1,114.75,88.57,66.67,50.76,8.92,5.00,6.50,8.66,3.33,13.33,0.50,3.21,34.45,0.00,53.33,7.23,0.00,0.00,0.00,0.00,45.92,36.67,0.00,10.36,61.09,20.00,93.33,18.49,36.55,46.67,8.33,17.79
1,114.72,91.43,70.00,48.84,8.93,5.00,6.50,8.66,3.33,13.33,0.50,3.21,33.87,0.00,53.33,7.23,0.00,0.00,0.00,0.00,44.24,33.33,0.00,9.51,55.99,11.11,88.89,15.52,36.36,46.67,8.33,17.76
1,114.35,92.86,70.00,46.94,8.94,5.00,6.50,8.66,3.35,13.33,0.50,3.21,33.76,0.00,55.00,7.00,0.00,0.00,0.00,0.00,43.62,30.00,0.00,9.34,55.52,11.11,86.67,15.50,34.66,43.33,8.33,16.97
1,111.26,90.00,70.00,44.34,8.66,4.50,6.50,8.44,3.35,13.33,0.50,3.21,34.25,0.00,56.67,7.14,0.00,0.00,0.00,0.00,43.22,30.00,0.00,9.17,53.99,11.11,82.22,14.90,33.87,43.33,8.33,16.82
1,109.07,90.00,63.33,42.62,8.69,4.50,6.00,8.48,3.35,13.33,0.50,3.21,34.75,0.00,60.00,7.20,0.00,0.00,0.00,0.00,43.31,26.67,0.00,9.04,51.61,11.11,75.56,14.32,32.53,40.00,8.33,15.73
1,108.56,90.00,66.67,41.29,8.69,4.50,6.00,8.49,3.34,13.33,0.50,3.21,34.56,0.00,61.67,6.98,0.00,0.00,0.00,0.00,41.34,23.33,0.00,7.53,50.33,11.11,71.11,13.71,30.70,33.33,8.33,14.84
1,104.47,87.14,63.33,38.93,8.69,4.50,6.00,8.49,3.34,13.33,0.50,3.21,35.14,0.00,65.00,7.34,0.00,0.00,0.00,0.00,39.40,20.00,0.00,7.05,49.08,11.11,66.67,13.30,30.73,30.00,8.33,14.74
1,99.15,80.00,46.67,36.30,8.69,4.50,6.00,8.49,3.34,13.33,0.50,3.21,33.51,0.00,63.33,6.91,0.00,0.00,0.00,0.00,39.71,20.00,0.00,7.07,46.45,8.89,66.67,11.32,30.45,30.00,8.33,14.51
1,96.22,75.71,46.67,35.23,8.69,4.50,6.00,8.49,3.35,13.33,0.50,3.21,32.87,0.00,58.33,6.61,0.00,0.00,0.00,0.00,37.85,20.00,0.00,6.66,42.53,6.67,60.00,9.27,30.37,30.00,8.33,14.14
1,96.85,78.57,46.67,35.20,8.68,4.50,6.00,8.49,3.35,13.33,0.50,3.21,33.49,0.00,60.00,6.87,0.00,0.00,0.00,0.00,37.24,16.67,0.00,6.29,41.64,6.67,57.78,9.36,29.05,23.33,8.33,12.87
1,95.90,77.14,46.67,34.40,8.69,4.50,6.00,8.49,4.04,13.33,1.50,5.08,33.96,0.00,58.33,7.10,0.00,0.00,0.00,0.00,36.73,16.67,0.00,6.31,41.24,6.67,55.56,9.30,29.24,23.33,8.33,13.20
1,98.11,77.14,46.67,34.90,8.70,4.50,6.00,8.49,5.94,20.00,2.50,8.51,34.65,0.00,60.00,7.50,0.00,0.00,0.00,0.00,35.08,16.67,0.00,5.96,39.37,4.44,53.33,8.20,27.15,23.33,0.00,9.89
1,95.56,72.86,46.67,34.89,6.67,3.50,4.50,6.21,6.26,20.00,2.50,8.85,34.16,0.00,58.33,7.48,0.00,0.00,0.00,0.00,34.22,16.67,0.00,5.51,39.13,4.44,53.33,8.25,27.99,23.33,0.00,10.29
1,97.79,74.29,53.33,36.60,5.10,2.50,3.50,4.75,6.27,20.00,2.50,8.85,34.23,0.00,60.00,7.47,0.00,0.00,0.00,0.00,34.08,16.67,0.00,5.72,36.39,0.00,44.44,7.18,26.65,16.67,0.00,8.90
1,92.23,71.43,50.00,32.46,5.67,3.00,4.00,4.93,4.77,13.33,2.00,6.87,33.14,0.00,58.33,7.05,0.00,0.00,0.00,0.00,32.53,16.67,0.00,5.11,36.31,0.00,46.67,6.78,25.46,13.33,0.00,7.92
1,88.94,68.57,46.67,31.27,6.08,3.50,4.50,5.29,4.57,13.33,2.00,6.65,32.88,0.00,60.00,7.00,0.00,0.00,0.00,0.00,32.33,16.67,0.00,5.02,36.90,0.00,48.89,6.88,26.04,13.33,0.00,8.26
1,89.83,68.57,46.67,30.91,6.11,3.50,4.50,5.29,5.42,20.00,2.00,7.28,33.21,0.00,61.67,6.99,0.00,0.00,0.00,0.00,30.63,10.00,0.00,4.74,35.09,0.00,44.44,6.24,25.30,10.00,0.00,7.82
1,88.29,67.14,43.33,29.81,6.11,3.50,4.50,5.29,7.79,26.67,3.00,10.85,32.85,0.00,61.67,6.93,0.00,0.00,0.00,0.00,29.35,6.67,0.00,4.23,35.31,0.00,46.67,6.00,24.41,6.67,0.00,7.75
1,86.71,64.29,40.00,28.18,6.11,3.50,4.50,5.29,10.72,36.67,4.50,15.75,33.33,0.00,65.00,6.90,0.00,0.00,0.00,0.00,29.73,6.67,0.00,4.25,33.99,0.00,42.22,5.77,24.02,6.67,0.00,6.97
1,83.51,58.57,33.33,28.14,6.11,3.50,4.50,5.29,11.60,40.00,5.00,18.33,34.41,0.00,68.33,7.02,0.00,0.00,0.00,0.00,29.56,6.67,0.00,4.36,33.64,0.00,40.00,5.54,24.10,6.67,0.00,7.13
1,82.88,58.57,33.33,28.04,6.11,3.50,4.50,5.29,11.62,40.00,5.00,18.34,35.26,0.00,73.33,7.09,0.00,0.00,0.00,0.00,28.21,6.67,0.00,3.95,32.95,0.00,33.33,5.39,24.45,6.67,0.00,7.22
1,83.62,55.71,40.00,28.63,6.12,3.50,4.50,5.29,11.65,40.00,5.00,18.34,35.16,0.00,75.00,6.91,0.00,0.00,0.00,0.00,29.72,6.67,0.00,4.23,34.65,0.00,37.78,6.11,23.55,6.67,0.00,6.68
1,83.15,51.43,40.00,29.14,6.13,3.50,4.50,5.29,11.64,40.00,5.00,18.34,34.78,0.00,75.00,6.86,0.00,0.00,0.00,0.00,29.45,6.67,0.00,4.30,34.74,0.00,37.78,6.25,23.65,6.67,0.00,6.61
1,82.76,48.57,40.00,29.26,6.11,3.50,4.50,5.29,11.62,40.00,5.00,18.34,36.58,0.00,80.00,7.32,0.00,0.00,0.00,0.00,29.67,6.67,0.00,4.32,34.95,0.00,37.78,6.15,24.49,6.67,0.00,6.81
1,87.50,54.29,43.33,31.51,5.74,3.00,3.50,5.22,11.61,40.00,5.00,18.34,36.94,0.00,78.33,7.63,0.00,0.00,0.00,0.00,30.34,6.67,0.00,4.55,35.43,0.00,42.22,6.38,25.21,6.67,0.00,7.31
1,87.05,51.43,40.00,31.58,4.16,2.50,2.50,3.53,11.61,40.00,5.00,18.34,36.79,0.00,76.67,7.66,0.00,0.00,0.00,0.00,29.13,6.67,0.00,4.27,36.69,0.00,44.44,6.65,25.38,6.67,0.00,7.40
1,86.13,50.00,36.67,31.90,1.77,1.00,1.00,0.79,11.62,40.00,5.00,18.34,36.75,0.00,75.00,7.65,0.00,0.00,0.00,0.00,27.64,0.00,0.00,3.90,37.25,0.00,48.89,6.83,25.21,6.67,0.00,7.30
1,89.14,54.29,43.33,33.60,1.48,1.00,1.00,0.55,11.62,40.00,5.00,18.34,36.62,0.00,73.33,7.71,0.00,0.00,0.00,0.00,29.54,0.00,0.00,4.37,38.60,0.00,55.56,7.11,24.80,6.67,0.00,7.07
1,91.09,57.14,46.67,34.93,1.47,1.00,1.00,0.55,11.62,40.00,5.00,18.34,35.21,0.00,68.33,6.85,0.00,0.00,0.00,0.00,29.83,3.33,0.00,4.86,37.89,0.00,51.11,6.92,23.45,3.33,0.00,6.49
1,91.89,57.14,46.67,35.21,1.47,1.00,1.00,0.55,11.62,40.00,5.00,18.34,34.74,0.00,66.67,6.82,0.00,0.00,0.00,0.00,29.68,3.33,0.00,4.70,38.50,0.00,53.33,7.08,23.49,3.33,0.00,6.21
1,90.30,57.14,43.33,34.99,1.47,1.00,1.00,0.55,11.61,40.00,5.00,18.34,35.29,0.00,66.67,6.80,0.00,0.00,0.00,0.00,29.10,3.33,0.00,4.60,37.62,0.00,51.11,6.89,23.46,3.33,0.00,6.07
1,91.40,58.57,46.67,35.10,1.47,1.00,1.00,0.55,11.19,40.00,4.50,18.34,35.31,0.00,68.33,6.83,0.00,0.00,0.00,0.00,29.57,3.33,0.00,4.64,37.11,0.00,48.89,6.57,24.06,3.33,0.00,6.07
1,93.54,62.86,53.33,35.43,1.85,1.50,1.50,0.64,8.43,30.00,3.00,13.95,34.36,0.00,63.33,6.46,0.00,0.00,0.00,0.00,29.69,3.33,0.00,4.59,37.60,0.00,51.11,6.49,25.06,3.33,0.00,6.36
1,93.27,62.86,53.33,35.66,3.80,2.50,2.50,2.82,7.58,26.67,3.00,11.71,34.29,0.00,66.67,6.60,0.00,0.00,0.00,0.00,30.51,3.33,0.00,4.69,38.63,0.00,53.33,6.72,23.58,0.00,0.00,5.84
1,92.70,62.86,50.00,35.17,5.92,3.50,4.00,5.42,7.53,26.67,3.00,11.70,34.94,0.00,68.33,6.56,0.00,0.00,0.00,0.00,30.93,3.33,0.00,4.72,37.99,0.00,53.33,6.45,23.71,0.00,0.00,5.93
1,94.58,62.86,50.00,35.62,8.27,4.50,6.00,7.93,7.53,26.67,3.00,11.70,34.03,0.00,66.67,6.42,0.00,0.00,0.00,0.00,31.12,3.33,0.00,4.59,37.93,0.00,57.78,6.41,23.58,0.00,0.00,5.88
1,97.87,67.14,50.00,37.86,9.03,4.50,6.00,9.87,7.51,26.67,3.00,11.70,35.56,0.00,68.33,6.91,0.00,0.00,0.00,0.00,31.77,3.33,0.00,4.66,37.39,0.00,57.78,6.30,24.17,0.00,0.00,5.85
1,98.79,68.57,50.00,39.20,9.02,4.50,6.00,9.88,6.71,20.00,3.00,11.12,35.64,0.00,71.67,6.79,0.00,0.00,0.00,0.00,33.72,6.67,0.00,5.23,39.21,0.00,62.22,6.86,24.78,3.33,0.00,6.63
1,98.46,67.14,50.00,39.35,9.02,4.50,6.00,9.88,4.72,13.33,2.00,7.74,35.16,0.00,66.67,6.87,0.00,0.00,0.00,0.00,34.10,6.67,0.00,5.43,39.84,2.22,64.44,7.56,25.34,3.33,0.00,6.91
1,100.54,70.00,53.33,40.26,9.03,4.50,6.00,9.88,2.60,6.67,1.00,3.81,35.36,0.00,68.33,6.94,0.00,0.00,0.00,0.00,34.42,6.67,0.00,5.76,41.11,2.22,68.89,7.85,25.36,3.33,0.00,7.08
1,99.13,68.57,53.33,39.02,9.03,4.50,6.00,9.88,0.50,0.00,0.00,0.02,35.93,5.00,66.67,7.49,0.00,0.00,0.00,0.00,34.03,6.67,0.00,5.60,40.73,2.22,66.67,7.69,25.68,3.33,0.00,7.61
1,104.42,70.00,60.00,44.50,9.02,4.50,6.00,9.88,0.44,0.00,0.00,0.01,35.80,5.00,65.00,7.49,0.00,0.00,0.00,0.00,36.13,10.00,0.00,6.12,40.80,2.22,66.67,7.69,25.41,3.33,0.00,7.58
1,100.70,68.57,53.33,41.84,9.02,4.50,6.00,9.88,2.46,10.00,1.00,3.44,36.28,5.00,66.67,7.53,0.00,0.00,0.00,0.00,36.53,10.00,0.00,6.18,42.00,2.22,73.33,7.60,26.97,6.67,0.00,7.96
1,102.33,74.29,56.67,41.70,9.02,4.50,6.00,9.88,4.80,16.67,2.00,7.19,35.52,5.00,65.00,7.53,0.00,0.00,0.00,0.00,37.02,10.00,0.00,6.21,41.46,2.22,71.11,8.02,27.83,10.00,0.00,9.24
1,102.54,75.71,53.33,41.86,9.01,4.50,6.00,9.88,6.80,26.67,3.00,10.77,34.82,5.00,61.67,7.45,0.00,0.00,0.00,0.00,36.42,13.33,0.00,6.08,41.72,2.22,73.33,8.06,28.82,16.67,0.00,9.77
1,107.47,78.57,60.00,46.52,10.89,5.50,7.00,11.94,7.12,26.67,3.00,11.14,34.65,5.00,63.33,7.06,0.00,0.00,0.00,0.00,35.77,13.33,0.00,5.91,42.69,2.22,73.33,8.83,30.31,20.00,0.00,11.41
1,106.67,78.57,56.67,46.38,11.92,6.50,8.00,12.73,7.13,26.67,3.00,11.14,34.58,5.00,61.67,7.23,0.00,0.00,0.00,0.00,36.42,13.33,0.00,5.93,44.26,4.44,75.56,9.84,31.95,23.33,0.00,12.47
1,107.79,78.57,60.00,46.41,12.03,6.50,8.00,12.77,7.13,26.67,3.00,11.14,36.22,5.00,65.00,7.79,0.00,0.00,0.00,0.00,37.15,13.33,0.00,6.14,44.46,4.44,73.33,9.81,33.75,30.00,0.00,13.51
1,109.52,80.00,60.00,47.29,12.03,6.50,8.00,12.77,7.92,30.00,3.00,11.86,37.36,5.00,66.67,8.16,0.00,0.00,0.00,0.00,36.81,13.33,0.00,5.92,44.61,6.67,73.33,10.45,34.53,33.33,0.00,14.49
1,106.97,77.14,56.67,46.65,12.02,6.50,8.00,12.77,9.98,40.00,4.00,15.05,37.61,5.00,68.33,8.34,0.00,0.00,0.00,0.00,35.70,10.00,0.00,5.28,44.86,6.67,73.33,10.77,34.49,33.33,0.00,14.78
1,106.25,77.14,56.67,46.04,12.02,6.50,8.00,12.77,10.26,40.00,4.00,15.38,39.20,5.00,73.33,8.70,0.00,0.00,0.00,0.00,37.30,13.33,0.00,5.63,45.38,6.67,73.33,11.13,34.96,33.33,0.00,14.92
1,111.87,80.00,60.00,50.40,12.03,6.50,8.00,12.77,10.27,40.00,4.00,15.38,39.97,5.00,76.67,8.90,0.00,0.00,0.00,0.00,39.11,20.00,0.00,6.36,46.57,6.67,75.56,11.53,35.02,33.33,0.00,14.99
1,108.42,75.71,53.33,49.69,12.02,6.50,8.00,12.77,10.29,40.00,4.00,15.38,38.25,5.00,71.67,8.31,0.00,0.00,0.00,0.00,38.95,20.00,0.00,6.36,48.88,6.67,84.44,12.15,34.06,33.33,0.00,14.72
1,108.36,74.29,50.00,49.57,11.75,6.00,7.50,12.74,10.29,40.00,4.00,15.38,38.77,5.00,73.33,8.46,0.00,0.00,0.00,0.00,38.58,20.00,0.00,6.30,49.28,6.67,86.67,12.17,34.37,36.67,0.00,14.97
1,105.52,72.86,46.67,46.55,10.14,5.50,6.50,10.92,10.29,40.00,4.00,15.38,38.99,5.00,70.00,8.57,0.00,0.00,0.00,0.00,37.95,20.00,0.00,6.27,49.64,6.67,86.67,12.35,33.84,36.67,0.00,14.48
1,105.78,71.43,46.67,46.86,7.73,4.00,5.00,8.11,10.29,40.00,4.00,15.38,38.20,5.00,66.67,8.38,0.00,0.00,0.00,0.00,37.20,20.00,0.00,6.19,51.32,6.67,91.11,13.01,34.10,36.67,0.00,14.77
1,105.33,72.86,43.33,46.56,5.67,3.00,3.50,5.56,10.29,40.00,4.00,15.38,38.72,5.00,66.67,8.53,0.00,0.00,0.00,0.00,37.08,20.00,0.00,6.21,51.23,6.67,88.89,13.11,34.42,40.00,0.00,15.02
1,104.65,72.86,46.67,45.82,3.55,2.00,2.00,2.93,10.29,40.00,4.00,15.38,38.59,5.00,70.00,8.51,0.00,0.00,0.00,0.00,37.64,20.00,0.00,6.43,50.92,6.67,91.11,13.04,35.23,40.00,0.00,15.39
1,107.65,74.29,50.00,47.44,3.42,2.00,2.00,2.90,10.28,40.00,4.00,15.38,38.33,5.00,68.33,8.43,0.00,0.00,0.00,0.00,35.60,16.67,0.00,6.12,50.89,6.67,88.89,13.11,35.40,40.00,0.00,15.75
1,107.47,74.29,50.00,46.60,3.41,2.00,2.00,2.90,10.29,40.00,4.00,15.38,38.44,5.00,71.67,8.32,0.00,0.00,0.00,0.00,35.95,16.67,0.00,5.91,49.43,6.67,86.67,12.48,34.99,36.67,0.00,15.16
1,109.20,75.71,50.00,48.35,3.41,2.00,2.00,2.90,10.29,40.00,4.00,15.38,37.85,5.00,71.67,8.03,0.00,0.00,0.00,0.00,34.93,16.67,0.00,5.48,48.24,4.44,82.22,11.77,34.49,36.67,0.00,14.67
1,107.82,74.29,50.00,48.07,3.41,2.00,2.00,2.90,10.29,40.00,4.00,15.38,36.38,0.00,71.67,7.18,0.00,0.00,0.00,0.00,35.76,16.67,0.00,5.82,49.07,4.44,82.22,12.02,33.43,36.67,0.00,14.09
1,104.22,72.86,46.67,43.97,3.41,2.00,2.00,2.90,10.29,40.00,4.00,15.38,36.32,0.00,71.67,7.15,0.00,0.00,0.00,0.00,35.40,16.67,0.00,5.59,48.91,4.44,82.22,12.06,33.37,36.67,0.00,13.81
1,106.60,74.29,46.67,44.44,3.59,2.00,2.00,2.92,8.41,30.00,3.00,12.28,35.84,0.00,68.33,7.16,0.00,0.00,0.00,0.00,35.02,16.67,0.00,5.79,47.76,4.44,75.56,11.89,33.32,36.67,0.00,13.85
1,105.37,70.00,40.00,44.97,4.52,2.50,3.00,3.21,6.34,23.33,2.00,8.46,36.27,5.00,66.67,7.57,0.00,0.00,0.00,0.00,34.68,16.67,0.00,5.72,45.83,4.44,71.11,10.97,30.96,30.00,0.00,12.24
1,102.72,65.71,40.00,43.31,6.78,4.00,5.00,4.86,4.30,16.67,1.00,4.76,36.45,5.00,68.33,7.56,0.00,0.00,0.00,0.00,34.41,13.33,0.00,5.61,45.00,4.44,68.89,10.61,30.58,26.67,0.00,12.12
1,99.59,64.29,40.00,39.59,6.34,4.00,4.50,5.71,3.62,13.33,1.00,4.26,35.83,5.00,65.00,7.42,0.00,0.00,0.00,0.00,37.15,16.67,5.00,7.09,43.72,4.44,64.44,10.18,29.25,23.33,0.00,10.94
1,99.02,64.29,40.00,39.13,5.00,3.00,3.50,3.76,3.61,13.33,1.00,4.25,35.32,5.00,66.67,7.18,0.00,0.00,0.00,0.00,37.96,16.67,5.00,7.39,42.64,4.44,62.22,9.55,26.42,16.67,0.00,8.89
1,95.06,61.43,33.33,36.83,4.65,2.50,3.50,3.61,3.61,13.33,1.00,4.25,35.24,5.00,66.67,7.27,0.00,0.00,0.00,0.00,37.23,16.67,5.00,7.25,40.52,2.22,60.00,8.39,25.76,13.33,0.00,8.67
1,93.89,60.00,30.00,35.63,4.65,2.50,3.50,3.61,3.39,13.33,1.00,4.25,34.10,5.00,66.67,6.78,0.00,0.00,0.00,0.00,37.22,16.67,5.00,7.50,41.12,2.22,62.22,8.49,25.09,10.00,0.00,7.73
1,96.54,62.86,30.00,36.99,4.67,2.50,3.50,3.61,1.34,3.33,0.00,2.23,34.60,5.00,70.00,6.84,0.00,0.00,0.00,0.00,37.48,16.67,5.00,7.52,39.42,0.00,60.00,7.44,24.00,6.67,0.00,6.79
1,96.54,62.86,26.67,36.47,4.67,2.50,3.50,3.61,0.52,0.00,0.00,0.02,33.86,5.00,66.67,6.47,0.00,0.00,0.00,0.00,37.93,13.33,5.00,7.80,38.22,0.00,57.78,7.08,24.03,6.67,0.00,6.90
1,98.40,64.29,33.33,38.08,4.67,2.50,3.50,3.61,0.60,0.00,0.00,0.01,33.54,5.00,66.67,6.43,0.00,0.00,0.00,0.00,35.79,6.67,5.00,7.20,37.04,0.00,53.33,6.68,24.39,6.67,0.00,6.96
1,99.00,65.71,36.67,36.08,4.68,2.50,3.50,3.61,2.28,6.67,0.50,1.37,33.33,5.00,65.00,6.39,0.00,0.00,0.00,0.00,37.54,16.67,5.00,7.69,34.73,0.00,46.67,6.18,24.10,6.67,0.00,6.90
1,98.03,62.86,36.67,36.33,4.69,2.50,3.50,3.61,3.61,13.33,1.00,4.14,33.07,5.00,65.00,6.35,0.00,0.00,0.00,0.00,36.71,16.67,5.00,7.62,33.29,0.00,42.22,5.83,24.06,3.33,0.00,7.02
1,102.51,70.00,43.33,39.36,4.69,2.50,3.50,3.61,3.94,16.67,1.00,4.35,33.53,5.00,68.33,6.44,0.00,0.00,0.00,0.00,36.49,16.67,5.00,7.48,32.54,0.00,40.00,5.62,23.34,3.33,0.00,6.54
1,102.64,68.57,43.33,38.69,6.72,3.50,4.50,5.88,3.95,16.67,1.00,4.35,33.31,5.00,68.33,6.40,0.00,0.00,0.00,0.00,37.36,16.67,5.00,7.52,30.83,0.00,33.33,5.31,23.30,3.33,0.00,6.55
1,101.44,67.14,46.67,38.50,7.62,4.50,5.50,6.44,3.94,16.67,1.00,4.35,33.62,5.00,68.33,6.33,0.00,0.00,0.00,0.00,37.67,16.67,5.00,7.67,30.62,0.00,31.11,5.03,23.49,0.00,0.00,6.46
1,104.15,67.14,46.67,40.36,8.04,5.00,5.50,6.58,3.95,16.67,1.00,4.35,32.44,5.00,63.33,5.97,0.00,0.00,0.00,0.00,37.07,16.67,5.00,7.40,29.97,0.00,26.67,4.76,23.19,0.00,0.00,6.15
1,104.72,68.57,46.67,41.13,8.04,5.00,5.50,6.58,5.06,23.33,1.50,5.45,32.68,5.00,63.33,6.09,0.00,0.00,0.00,0.00,37.78,16.67,5.00,7.58,29.21,0.00,24.44,4.58,21.86,0.00,0.00,5.47
1,106.54,71.43,53.33,41.51,8.04,5.00,5.50,6.58,7.15,30.00,2.50,9.11,32.27,5.00,61.67,6.07,0.00,0.00,0.00,0.00,38.22,16.67,5.00,7.83,29.09,0.00,20.00,4.67,21.81,3.33,0.00,5.65
1,104.83,70.00,53.33,39.90,8.03,5.00,5.50,6.58,9.51,36.67,3.50,12.88,32.38,5.00,60.00,6.25,0.00,0.00,0.00,0.00,39.15,20.00,5.00,8.07,30.10,0.00,26.67,4.86,21.28,3.33,0.00,5.43
1,109.62,72.86,56.67,41.68,8.02,5.00,5.50,6.58,11.29,43.33,4.50,16.62,32.47,5.00,58.33,6.28,0.00,0.00,0.00,0.00,41.03,23.33,5.00,8.73,29.71,0.00,26.67,4.70,21.88,3.33,0.00,5.71
1,107.95,72.86,56.67,41.75,8.02,5.00,5.50,6.58,11.32,43.33,4.50,16.63,32.17,5.00,56.67,6.25,0.00,0.00,0.00,0.00,40.72,23.33,5.00,8.82,30.94,0.00,31.11,4.76,21.50,3.33,0.00,5.61
1,115.65,78.57,70.00,48.60,7.85,5.00,5.50,6.56,11.32,43.33,4.50,16.63,32.65,5.00,58.33,6.32,0.00,0.00,0.00,0.00,42.71,30.00,5.00,10.03,31.09,0.00,33.33,4.94,22.65,6.67,0.00,6.16
1,114.72,77.14,70.00,48.95,7.18,4.50,4.50,6.29,11.32,43.33,4.50,16.63,31.08,0.00,55.00,5.55,0.00,0.00,0.00,0.00,43.66,33.33,5.00,10.30,31.84,0.00,35.56,5.18,22.85,6.67,0.00,6.23
1,117.02,78.57,73.33,50.06,5.92,3.50,3.00,5.40,11.30,43.33,4.50,16.63,31.82,0.00,55.00,5.79,0.00,0.00,0.00,0.00,42.87,33.33,5.00,10.03,33.22,0.00,40.00,5.63,22.74,6.67,0.00,6.13
1,114.30,77.14,66.67,48.62,3.82,2.50,2.00,2.99,11.29,43.33,4.50,16.63,30.99,0.00,53.33,5.58,0.00,0.00,0.00,0.00,43.85,40.00,5.00,9.69,33.75,0.00,40.00,5.78,23.03,6.67,0.00,6.03
1,121.58,80.00,73.33,54.19,3.77,2.50,2.00,2.98,11.29,43.33,4.50,16.63,31.22,0.00,55.00,5.59,0.00,0.00,0.00,0.00,44.95,46.67,5.00,9.79,34.74,0.00,42.22,6.28,23.51,6.67,0.00,6.33
1,128.40,85.71,83.33,60.22,3.76,2.50,2.00,2.98,11.31,43.33,4.50,16.63,31.51,0.00,55.00,5.51,0.00,0.00,0.00,0.00,46.38,46.67,5.00,10.10,34.56,0.00,40.00,6.25,23.65,6.67,0.00,6.39
1,127.13,85.71,83.33,60.50,3.76,2.50,2.00,2.98,11.30,43.33,4.50,16.63,30.64,0.00,50.00,5.28,0.00,0.00,0.00,0.00,46.40,46.67,5.00,10.02,33.38,0.00,33.33,6.15,24.17,10.00,0.00,6.70
1,125.77,82.86,83.33,60.46,3.75,2.50,2.00,2.98,11.31,43.33,4.50,16.63,32.26,0.00,53.33,5.79,0.00,0.00,0.00,0.00,47.54,46.67,5.00,10.34,35.72,0.00,37.78,7.01,24.51,10.00,0.00,6.86
1,129.38,90.00,93.33,61.70,3.75,2.50,2.00,2.98,11.31,43.33,4.50,16.63,32.78,0.00,53.33,6.15,0.00,0.00,0.00,0.00,46.87,46.67,5.00,10.00,37.29,0.00,44.44,7.54,24.92,10.00,0.00,6.89
1,124.37,87.14,83.33,58.77,3.75,2.50,2.00,2.98,11.31,43.33,4.50,16.63,33.66,0.00,51.67,6.58,0.00,0.00,0.00,0.00,48.35,46.67,5.00,10.39,39.43,0.00,51.11,8.14,24.85,10.00,0.00,6.87
1,125.34,85.71,86.67,60.55,4.08,3.00,2.50,3.03,10.72,40.00,4.50,16.34,34.66,0.00,58.33,6.78,0.00,0.00,0.00,0.00,47.30,40.00,5.00,9.99,39.65,0.00,51.11,8.13,25.39,10.00,0.00,7.33
1,124.98,87.14,83.33,60.44,5.67,3.50,3.50,4.76,8.66,33.33,3.50,13.08,34.19,0.00,58.33,6.51,0.00,0.00,0.00,0.00,49.56,43.33,5.00,10.33,40.16,0.00,53.33,8.08,24.76,10.00,0.00,7.13
1,122.80,84.29,80.00,60.20,8.06,5.00,5.00,7.53,7.84,26.67,3.50,12.29,34.23,0.00,58.33,6.54,0.00,0.00,0.00,0.00,51.45,46.67,5.00,11.51,41.04,0.00,55.56,8.41,25.61,10.00,0.00,7.65
1,126.52,88.57,86.67,61.51,8.25,5.00,5.50,8.02,7.83,26.67,3.50,12.29,34.71,0.00,58.33,6.64,0.00,0.00,0.00,0.00,53.71,53.33,5.00,12.30,41.01,0.00,53.33,8.16,25.96,10.00,0.00,7.85
1,123.49,84.29,83.33,61.14,7.51,4.00,4.50,7.47,7.83,26.67,3.50,12.29,34.90,0.00,58.33,6.82,0.00,0.00,0.00,0.00,52.96,53.33,5.00,12.18,40.41,0.00,53.33,8.07,25.29,10.00,0.00,7.42
1,122.46,84.29,83.33,60.48,7.04,3.50,4.50,7.29,7.83,26.67,3.50,12.29,34.97,0.00,61.67,6.71,0.00,0.00,0.00,0.00,54.38,53.33,5.00,12.31,39.39,0.00,51.11,7.89,25.44,10.00,0.00,7.61
1,121.51,82.86,80.00,60.77,7.01,3.50,4.50,7.29,6.97,23.33,3.00,11.39,34.23,0.00,58.33,6.61,0.00,0.00,0.00,0.00,54.46,53.33,5.00,12.46,39.54,0.00,51.11,7.84,26.06,10.00,0.00,7.79
1,122.52,81.43,80.00,63.78,7.02,3.50,4.50,7.29,4.78,13.33,2.00,7.84,34.73,0.00,58.33,6.61,0.00,0.00,0.00,0.00,53.83,53.33,5.00,12.09,41.23,2.22,55.56,8.60,25.47,6.67,0.00,7.48
1,126.68,82.86,86.67,66.79,7.02,3.50,4.50,7.29,2.71,6.67,1.00,4.02,34.91,0.00,58.33,6.76,0.00,0.00,0.00,0.00,53.87,56.67,5.00,12.12,41.08,2.22,53.33,8.95,26.33,6.67,0.00,7.72
1,126.30,85.71,86.67,66.43,7.04,3.50,4.50,7.29,2.08,3.33,1.00,2.68,36.26,0.00,63.33,7.15,0.00,0.00,0.00,0.00,54.54,60.00,5.00,12.34,41.28,2.22,55.56,9.08,26.06,6.67,0.00,7.88
1,128.49,85.71,90.00,66.95,7.04,3.50,4.50,7.29,4.23,13.33,2.00,6.40,36.65,0.00,66.67,7.21,0.00,0.00,0.00,0.00,52.60,53.33,5.00,11.66,41.14,2.22,55.56,9.56,26.35,6.67,0.00,7.92
1,125.44,84.29,83.33,65.66,7.05,3.50,4.50,7.29,4.78,16.67,2.00,6.93,37.85,0.00,71.67,7.43,0.00,0.00,0.00,0.00,51.72,53.33,5.00,11.15,40.70,2.22,55.56,9.34,26.45,6.67,0.00,8.29
1,123.92,85.71,80.00,62.35,7.19,3.50,4.50,7.29,4.84,16.67,2.00,6.95,37.59,0.00,75.00,7.32,0.00,0.00,0.00,0.00,48.76,43.33,5.00,9.91,41.13,2.22,55.56,9.57,26.47,3.33,0.00,8.01
1,127.62,92.86,90.00,63.66,8.56,4.50,6.00,7.89,4.84,16.67,2.00,6.95,38.43,0.00,76.67,7.55,0.00,0.00,0.00,0.00,50.68,43.33,5.00,10.43,40.46,2.22,53.33,9.15,26.11,3.33,0.00,7.95
1,128.37,94.29,90.00,64.32,9.08,5.00,6.50,8.52,4.85,16.67,2.00,6.95,37.79,0.00,75.00,7.41,0.00,0.00,0.00,0.00,48.99,36.67,0.00,10.10,39.98,2.22,57.78,9.11,26.85,6.67,0.00,8.61
1,121.92,90.00,83.33,59.87,9.11,5.00,6.50,8.52,5.34,20.00,2.00,7.16,38.24,0.00,75.00,7.56,0.00,0.00,0.00,0.00,47.50,33.33,0.00,9.29,38.85,2.22,53.33,8.51,27.53,10.00,0.00,8.96
1,114.93,84.29,73.33,52.84,9.12,5.00,6.50,8.52,7.52,26.67,3.00,10.04,37.85,0.00,73.33,7.55,0.00,0.00,0.00,0.00,46.98,30.00,0.00,9.26,38.87,2.22,55.56,8.56,26.81,10.00,0.00,8.74
1,115.80,81.43,73.33,53.62,9.11,5.00,6.50,8.52,10.43,36.67,4.50,14.91,37.87,0.00,73.33,7.41,0.00,0.00,0.00,0.00,47.39,30.00,0.00,9.24,38.41,2.22,55.56,8.29,27.29,6.67,0.00,8.51
1,118.34,82.86,76.67,54.99,9.10,5.00,6.50,8.52,11.30,40.00,5.00,17.48,37.49,0.00,71.67,7.25,0.00,0.00,0.00,0.00,45.30,30.00,0.00,8.83,37.66,2.22,53.33,7.88,26.65,6.67,0.00,8.25
1,117.58,80.00,70.00,54.62,9.10,5.00,6.50,8.52,11.33,40.00,5.00,17.49,36.55,0.00,68.33,7.10,0.27,0.00,0.00,0.01,45.24,30.00,0.00,8.74,35.76,2.22,46.67,7.22,26.40,6.67,0.00,8.30
1,118.48,78.57,76.67,57.27,9.11,5.00,6.50,8.52,11.33,40.00,5.00,17.49,34.83,0.00,65.00,6.48,1.50,1.00,5.00,4.83,44.33,30.00,0.00,8.55,34.28,2.22,42.22,6.77,25.45,6.67,0.00,7.98
1,119.04,78.57,80.00,56.09,9.11,5.00,6.50,8.52,11.33,40.00,5.00,17.49,33.31,0.00,58.33,6.15,1.79,1.50,5.00,5.16,43.36,30.00,0.00,8.37,33.06,2.22,40.00,6.24,24.91,6.67,0.00,7.55
1,120.67,78.57,80.00,58.24,8.20,4.50,5.50,8.37,11.33,40.00,5.00,17.49,33.37,0.00,60.00,6.09,1.79,1.50,5.00,5.16,43.64,26.67,0.00,8.25,33.27,2.22,40.00,6.47,24.69,6.67,0.00,7.34
1,122.40,77.14,83.33,59.11,5.39,3.00,3.50,5.44,11.33,40.00,5.00,17.49,32.31,0.00,56.67,5.83,1.79,1.50,5.00,5.16,41.62,23.33,0.00,7.34,32.26,2.22,37.78,6.21,23.98,6.67,0.00,6.78
1,119.36,74.29,80.00,57.60,3.19,2.00,2.00,1.88,11.33,40.00,5.00,17.49,32.09,0.00,56.67,5.75,1.79,1.50,5.00,5.16,41.70,23.33,0.00,7.47,32.56,2.22,40.00,6.31,23.23,6.67,0.00,6.48
1,120.96,77.14,83.33,56.90,2.48,1.50,2.00,1.24,11.33,40.00,5.00,17.49,31.31,0.00,55.00,5.42,1.79,1.50,5.00,5.16,41.03,16.67,0.00,7.31,33.39,2.22,44.44,6.63,23.96,6.67,0.00,6.75
1,125.70,80.00,86.67,60.04,2.46,1.50,2.00,1.24,11.32,40.00,5.00,17.49,31.35,0.00,56.67,5.43,1.79,1.50,5.00,5.16,40.56,20.00,0.00,7.41,34.70,2.22,46.67,6.94,24.10,6.67,0.00,6.81
1,128.06,81.43,90.00,63.21,2.46,1.50,2.00,1.24,11.32,40.00,5.00,17.49,32.03,0.00,58.33,5.66,1.79,1.50,5.00,5.16,40.93,20.00,0.00,7.51,35.32,2.22,46.67,6.96,23.82,6.67,0.00,6.54
1,124.64,78.57,86.67,59.46,2.45,1.50,2.00,1.24,11.32,40.00,5.00,17.49,33.28,0.00,60.00,6.07,1.79,1.50,5.00,5.16,39.61,20.00,0.00,7.29,33.91,0.00,42.22,6.07,23.27,6.67,0.00,6.36
1,124.42,80.00,86.67,58.90,2.74,2.00,2.50,1.28,11.32,40.00,5.00,17.49,32.62,0.00,60.00,5.78,1.79,1.50,5.00,5.16,40.89,20.00,0.00,7.59,34.45,0.00,42.22,6.16,22.91,6.67,0.00,6.24
1,121.27,75.71,83.33,57.05,4.12,2.50,3.50,2.62,10.90,40.00,4.50,17.49,31.57,0.00,56.67,5.42,1.79,1.50,5.00,5.16,37.64,10.00,0.00,6.64,34.35,0.00,42.22,6.36,22.54,6.67,0.00,5.94
1,121.07,77.14,80.00,58.08,6.45,4.00,5.00,5.24,8.12,30.00,3.00,13.05,32.54,0.00,55.00,5.96,1.79,1.50,5.00,5.16,38.09,13.33,0.00,6.84,34.54,0.00,42.22,6.26,24.01,6.67,0.00,6.34
1,120.15,74.29,80.00,57.10,6.74,4.00,5.00,5.49,7.12,23.33,3.00,10.62,33.17,0.00,53.33,6.35,1.79,1.50,5.00,5.16,37.51,13.33,0.00,6.86,34.21,0.00,40.00,5.92,23.46,6.67,0.00,6.02
1,120.53,74.29,83.33,58.43,6.76,4.00,5.00,5.49,6.94,23.33,3.00,10.55,32.53,0.00,48.33,6.37,1.79,1.50,5.00,5.16,37.68,13.33,0.00,6.86,33.70,0.00,37.78,5.75,23.48,6.67,0.00,5.99
1,117.98,68.57,73.33,58.17,6.02,3.50,4.00,5.18,6.93,23.33,3.00,10.55,31.69,0.00,43.33,6.16,1.79,1.50,5.00,5.16,35.99,13.33,0.00,6.34,33.21,0.00,33.33,5.48,23.78,6.67,0.00,5.97
1,116.60,65.71,76.67,56.71,4.73,2.50,3.00,4.26,6.93,23.33,3.00,10.55,31.51,0.00,45.00,6.06,1.79,1.50,5.00,5.16,35.32,13.33,0.00,6.24,33.23,0.00,28.89,5.55,23.61,3.33,0.00,5.41
1,120.58,68.57,83.33,58.79,4.69,2.50,3.00,4.26,6.93,20.00,3.00,10.36,32.19,0.00,46.67,6.38,1.79,1.50,5.00,5.16,35.93,13.33,0.00,6.35,33.27,0.00,31.11,5.57,21.48,0.00,0.00,4.54
1,123.32,71.43,86.67,59.88,4.69,2.50,3.00,4.26,6.96,23.33,3.00,11.15,32.03,0.00,45.00,6.33,1.79,1.50,5.00,5.16,34.59,10.00,0.00,5.92,33.85,0.00,31.11,5.80,21.39,0.00,0.00,4.50
1,123.99,72.86,90.00,60.63,6.58,3.50,4.00,6.32,5.04,16.67,2.00,7.44,33.16,0.00,48.33,6.83,1.79,1.50,5.00,5.16,34.27,10.00,0.00,5.86,36.74,4.44,35.56,6.91,21.34,3.33,0.00,4.77
1,123.98,74.29,93.33,59.19,7.50,4.50,5.00,6.99,2.94,10.00,1.00,3.66,32.91,0.00,46.67,7.00,1.79,1.50,5.00,5.16,35.02,10.00,0.00,6.17,36.98,4.44,37.78,7.23,22.14,3.33,0.00,5.14
1,122.89,74.29,90.00,59.17,7.60,4.50,5.00,7.02,3.10,10.00,1.00,3.68,32.67,0.00,50.00,6.77,1.79,1.50,5.00,5.16,34.84,10.00,0.00,6.24,38.69,4.44,42.22,7.66,22.25,3.33,0.00,5.16
1,122.75,77.14,93.33,57.33,7.60,4.50,5.00,7.02,4.69,13.33,2.00,6.36,33.84,0.00,53.33,7.01,0.37,0.50,0.00,1.14,35.01,10.00,0.00,6.00,40.08,4.44,44.44,8.32,22.98,3.33,0.00,5.33
1,122.73,78.57,93.33,58.68,7.60,4.50,5.00,7.02,5.35,16.67,2.00,7.22,34.21,0.00,55.00,7.09,0.03,0.00,0.00,0.00,35.87,10.00,0.00,6.25,42.40,4.44,48.89,9.03,23.60,3.33,0.00,5.53
1,119.60,77.14,90.00,55.49,7.59,4.50,5.00,7.02,5.37,16.67,2.00,7.22,35.28,0.00,53.33,7.95,0.00,0.00,0.00,0.00,34.67,10.00,0.00,6.23,41.94,4.44,46.67,8.81,23.05,3.33,0.00,5.52
1,120.67,80.00,90.00,56.20,7.59,4.50,5.00,7.02,5.37,16.67,2.00,7.22,35.16,0.00,53.33,7.91,0.00,0.00,0.00,0.00,33.19,6.67,0.00,5.68,43.78,4.44,53.33,9.49,23.13,3.33,0.00,5.58
1,121.12,78.57,90.00,56.38,7.59,4.50,5.00,7.02,5.37,16.67,2.00,7.22,36.33,0.00,55.00,8.38,0.00,0.00,0.00,0.00,34.09,6.67,0.00,5.99,44.24,4.44,53.33,9.50,23.65,3.33,0.00,5.85
1,119.70,77.14,86.67,57.49,7.59,4.50,5.00,7.02,5.37,16.67,2.00,7.22,37.62,0.00,58.33,8.75,0.00,0.00,0.00,0.00,32.73,6.67,0.00,5.26,43.28,4.44,48.89,9.17,24.78,3.33,0.00,6.64
1,119.17,75.71,86.67,58.41,7.59,4.50,5.00,7.02,5.38,16.67,2.00,7.22,37.04,0.00,53.33,8.71,0.00,0.00,0.00,0.00,34.60,10.00,0.00,5.95,42.65,4.44,48.89,9.07,25.77,6.67,0.00,7.42
1,118.13,75.71,86.67,58.58,7.59,4.50,5.00,7.02,5.38,16.67,2.00,7.22,36.87,0.00,53.33,8.66,0.00,0.00,0.00,0.00,32.95,6.67,0.00,5.42,43.34,4.44,48.89,9.34,25.78,6.67,0.00,7.52
1,113.81,72.86,83.33,53.73,7.60,4.50,5.00,7.02,5.39,16.67,2.00,7.22,35.91,0.00,50.00,8.40,0.00,0.00,0.00,0.00,32.72,6.67,0.00,5.37,43.08,4.44,48.89,9.34,26.05,6.67,0.00,7.51
1,118.91,77.14,86.67,55.53,7.60,4.50,5.00,7.02,5.39,16.67,2.00,7.22,37.71,0.00,55.00,9.10,0.00,0.00,0.00,0.00,34.26,13.33,0.00,6.00,43.04,4.44,51.11,9.24,26.02,6.67,0.00,7.48
1,118.37,78.57,86.67,55.54,7.29,4.00,4.00,6.96,5.40,16.67,2.00,7.22,38.25,0.00,55.00,9.25,0.00,0.00,0.00,0.00,33.65,13.33,0.00,5.82,42.53,4.44,51.11,8.99,25.75,6.67,0.00,7.46
1,116.70,77.14,83.33,52.96,6.65,4.00,4.00,5.75,5.40,16.67,2.00,7.22,37.21,0.00,55.00,8.75,0.00,0.00,0.00,0.00,33.33,10.00,0.00,5.67,42.47,4.44,48.89,8.86,24.52,6.67,0.00,7.17
1,118.67,78.57,83.33,55.50,6.64,4.00,4.50,5.66,5.40,16.67,2.00,7.22,35.56,0.00,53.33,8.14,0.00,0.00,0.00,0.00,32.49,10.00,0.00,5.41,41.59,4.44,48.89,8.62,24.22,6.67,0.00,7.06
1,120.51,80.00,83.33,56.21,6.64,4.00,4.50,5.66,5.39,16.67,2.00,7.22,36.50,0.00,58.33,8.22,0.00,0.00,0.00,0.00,34.70,16.67,0.00,6.05,42.58,4.44,53.33,8.72,24.22,6.67,0.00,6.95
1,125.06,85.71,93.33,57.15,6.63,4.00,4.50,5.66,5.39,16.67,2.00,7.22,36.84,0.00,65.00,8.09,0.00,0.00,0.00,0.00,34.75,16.67,0.00,6.14,43.07,4.44,62.22,8.83,23.88,6.67,0.00,6.79
1,125.49,85.71,93.33,59.71,6.63,4.00,4.50,5.66,5.39,16.67,2.00,7.22,36.53,0.00,65.00,7.93,0.00,0.00,0.00,0.00,35.35,16.67,0.00,6.38,42.65,4.44,60.00,8.90,23.79,6.67,0.00,6.80
1,122.07,84.29,90.00,57.78,6.64,4.00,4.50,5.66,6.94,26.67,2.50,9.39,35.75,0.00,63.33,7.75,0.00,0.00,0.00,0.00,35.47,16.67,0.00,6.43,44.05,4.44,66.67,9.08,24.42,6.67,0.00,6.95
1,123.50,87.14,96.67,58.35,6.63,4.00,4.50,5.66,5.68,26.67,1.50,6.60,37.10,0.00,68.33,8.09,0.00,0.00,0.00,0.00,35.51,16.67,0.00,6.46,43.50,4.44,64.44,9.01,25.74,13.33,0.00,8.42
1,125.38,91.43,103.33,58.92,5.35,3.50,3.50,4.88,5.39,23.33,1.50,6.42,36.30,0.00,70.00,7.78,0.00,0.00,0.00,0.00,35.86,16.67,0.00,6.76,43.06,2.22,62.22,9.08,26.16,13.33,0.00,8.75
1,121.53,87.14,96.67,57.04,5.54,3.00,3.50,4.77,5.38,23.33,1.50,6.42,35.07,0.00,66.67,7.03,0.00,0.00,0.00,0.00,35.36,16.67,0.00,6.53,42.52,0.00,62.22,8.32,24.79,10.00,0.00,7.83
1,123.58,87.14,100.00,58.54,6.06,3.50,3.50,5.28,5.38,23.33,1.50,6.42,35.25,0.00,68.33,7.08,0.00,0.00,0.00,0.00,35.03,16.67,0.00,6.39,40.73,0.00,55.56,8.06,24.92,10.00,0.00,7.84
1,123.41,88.57,96.67,58.22,6.11,3.50,3.50,5.29,5.95,33.33,1.00,7.30,36.37,0.00,71.67,7.28,0.00,0.00,0.00,0.00,35.25,20.00,0.00,6.50,40.10,0.00,55.56,8.06,25.64,13.33,0.00,8.10
1,121.31,87.14,93.33,55.78,6.13,3.50,3.50,5.29,6.55,36.67,1.50,6.50,36.68,0.00,73.33,7.31,0.00,0.00,0.00,0.00,34.88,20.00,0.00,6.24,40.36,0.00,60.00,8.03,27.16,20.00,0.00,9.64
1,120.80,87.14,90.00,55.75,6.14,3.50,3.50,5.29,7.38,40.00,2.00,8.98,36.03,0.00,73.33,6.97,0.00,0.00,0.00,0.00,34.85,20.00,0.00,6.13,39.89,0.00,62.22,7.88,26.80,20.00,0.00,9.62
1,117.43,84.29,90.00,53.79,6.15,3.50,3.50,5.29,7.41,40.00,2.00,8.98,36.76,0.00,76.67,7.11,0.00,0.00,0.00,0.00,35.50,20.00,0.00,6.20,39.68,0.00,62.22,7.83,27.25,23.33,0.00,9.72
1,115.32,84.29,83.33,53.52,6.15,3.50,3.50,5.29,7.41,40.00,2.00,8.98,35.52,0.00,73.33,6.71,0.00,0.00,0.00,0.00,36.30,26.67,0.00,6.44,39.87,0.00,62.22,7.95,28.20,30.00,0.00,10.23
1,115.60,87.14,83.33,52.57,6.15,3.50,3.50,5.29,7.42,40.00,2.00,8.98,34.87,0.00,71.67,6.37,0.00,0.00,0.00,0.00,36.48,26.67,0.00,6.69,40.78,0.00,64.44,8.30,28.36,33.33,8.33,11.09
1,119.16,90.00,90.00,53.23,6.16,3.50,3.50,5.29,7.43,40.00,2.00,8.98,36.29,0.00,78.33,6.64,0.00,0.00,0.00,0.00,35.39,23.33,0.00,6.49,41.52,0.00,66.67,8.51,27.26,30.00,8.33,10.05
1,114.96,91.43,80.00,48.90,6.15,3.50,3.50,5.29,7.42,40.00,2.00,8.98,35.79,0.00,78.33,6.35,0.00,0.00,0.00,0.00,36.43,23.33,0.00,6.61,41.65,0.00,66.67,8.74,26.65,30.00,8.33,9.74
0,121.61,98.57,90.00,52.23,6.17,3.50,3.50,5.29,7.42,40.00,2.00,8.98,37.41,0.00,80.00,7.09,0.00,0.00,0.00,0.00,37.74,23.33,0.00,6.76,43.00,0.00,71.11,8.96,26.22,30.00,8.33,9.61
0,120.82,100.00,93.33,52.45,6.17,3.50,3.50,5.29,7.42,40.00,2.00,8.98,35.30,0.00,75.00,6.39,0.00,0.00,0.00,0.00,37.21,16.67,0.00,6.34,42.66,0.00,68.89,8.93,27.91,36.67,8.33,10.80
0,119.71,97.14,90.00,52.61,5.88,3.50,3.50,5.24,7.41,40.00,2.00,8.98,35.25,0.00,76.67,6.40,0.00,0.00,0.00,0.00,39.26,16.67,0.00,6.74,42.63,0.00,68.89,8.95,28.10,36.67,8.33,10.82
0,118.75,94.29,90.00,52.08,4.98,2.50,2.00,4.77,7.41,40.00,2.00,8.98,35.87,0.00,78.33,6.69,0.00,0.00,0.00,0.00,41.96,26.67,5.00,7.97,43.73,0.00,73.33,9.39,28.22,36.67,8.33,10.88
0,121.42,97.14,96.67,52.02,2.89,1.50,1.00,2.40,7.42,40.00,2.00,8.98,36.87,0.00,80.00,7.16,0.00,0.00,0.00,0.00,46.27,33.33,5.00,10.46,44.74,0.00,73.33,9.68,28.81,36.67,8.33,11.05
0,123.33,97.14,103.33,54.69,3.20,2.00,1.50,2.46,7.42,40.00,2.00,8.98,37.83,10.00,78.33,8.37,0.00,0.00,0.00,0.00,50.26,40.00,5.00,13.40,46.56,2.22,80.00,10.69,29.11,36.67,8.33,11.11
0,122.52,92.86,96.67,56.67,4.49,2.50,3.00,3.58,7.41,40.00,2.00,8.98,36.27,10.00,71.67,8.20,0.00,0.00,0.00,0.00,51.12,43.33,5.00,13.93,45.84,2.22,71.11,10.66,29.29,36.67,8.33,11.12
0,123.59,94.29,96.67,55.27,6.77,4.00,4.50,6.10,7.42,40.00,2.00,8.98,35.27,10.00,68.33,8.09,0.00,0.00,0.00,0.00,52.81,46.67,5.00,14.83,45.34,2.22,71.11,10.49,28.34,36.67,8.33,10.87
0,121.40,91.43,96.67,55.57,7.05,4.00,4.50,6.34,6.19,33.33,1.50,7.22,35.94,10.00,70.00,8.34,0.00,0.00,0.00,0.00,53.89,53.33,10.00,15.71,44.58,2.22,66.67,10.32,27.58,36.67,8.33,10.67
0,119.66,90.00,93.33,56.36,7.06,4.00,4.50,6.34,5.15,23.33,1.50,6.20,34.56,10.00,66.67,7.74,0.00,0.00,0.00,0.00,53.16,53.33,10.00,15.57,44.29,2.22,64.44,10.22,26.04,30.00,8.33,9.34
0,121.60,84.29,86.67,63.55,7.04,4.00,4.50,6.34,5.01,23.33,1.50,6.15,34.75,10.00,66.67,7.77,0.00,0.00,0.00,0.00,52.83,53.33,10.00,15.37,41.98,2.22,62.22,9.48,25.04,30.00,8.33,8.65
0,123.85,87.14,90.00,65.98,6.63,4.00,4.00,6.34,5.01,23.33,1.50,6.15,35.02,10.00,66.67,7.78,0.00,0.00,0.00,0.00,54.00,53.33,10.00,15.64,41.55,2.22,62.22,9.25,25.03,30.00,8.33,8.64
0,121.97,85.71,90.00,64.39,4.85,2.50,3.50,4.03,5.01,23.33,1.50,6.15,34.55,10.00,63.33,7.60,0.00,0.00,0.00,0.00,53.22,53.33,10.00,15.52,40.89,2.22,62.22,8.91,24.43,30.00,8.33,8.53
0,122.56,82.86,90.00,66.43,4.69,2.50,3.50,3.96,4.27,16.67,1.50,5.29,34.05,10.00,61.67,7.60,0.00,0.00,0.00,0.00,51.72,50.00,10.00,15.25,39.85,2.22,60.00,8.25,23.75,30.00,8.33,8.23
0,124.47,82.86,93.33,68.72,4.67,2.50,3.50,3.96,4.30,13.33,1.50,5.61,33.98,10.00,60.00,7.68,0.00,0.00,0.00,0.00,52.49,50.00,10.00,15.44,40.39,2.22,60.00,8.13,22.16,23.33,8.33,6.93
0,131.21,84.29,100.00,73.13,4.67,2.50,3.50,3.96,2.80,10.00,0.50,2.52,33.78,10.00,60.00,7.55,0.00,0.00,0.00,0.00,53.11,50.00,10.00,15.48,38.82,2.22,55.56,7.79,21.48,20.00,8.33,6.31
0,134.44,85.71,106.67,77.94,4.66,2.50,3.50,3.96,2.76,10.00,0.50,2.51,33.08,10.00,58.33,7.17,0.00,0.00,0.00,0.00,53.93,50.00,10.00,15.79,39.20,2.22,55.56,7.91,21.29,20.00,8.33,6.22
0,137.81,88.57,110.00,78.34,7.00,3.50,5.00,6.26,2.77,10.00,0.50,2.51,33.94,10.00,63.33,7.42,0.00,0.00,0.00,0.00,52.45,43.33,10.00,15.31,37.95,2.22,53.33,7.49,19.66,13.33,8.33,5.29
0,139.30,87.14,110.00,80.99,8.92,5.00,6.00,8.53,2.77,10.00,0.50,2.51,33.65,10.00,66.67,7.36,0.00,0.00,0.00,0.00,51.38,43.33,10.00,15.03,36.51,2.22,51.11,7.02,18.28,6.67,0.00,3.83
0,139.53,85.71,106.67,81.56,9.21,5.00,6.50,8.74,2.87,10.00,0.50,2.52,33.49,10.00,65.00,7.34,1.03,0.50,2.50,2.34,50.42,43.33,10.00,14.80,35.25,2.22,46.67,6.45,18.45,6.67,0.00,3.81
0,140.65,85.71,110.00,82.60,9.21,5.00,6.50,8.74,4.42,16.67,1.00,4.54,34.23,10.00,63.33,7.75,1.67,1.00,5.00,3.72,50.09,43.33,10.00,14.63,34.50,2.22,44.44,6.05,18.30,6.67,0.00,3.76
0,139.74,84.29,106.67,82.93,9.21,5.00,6.50,8.74,6.79,23.33,2.00,8.22,34.37,10.00,66.67,7.43,2.36,1.00,7.50,5.30,48.61,43.33,10.00,14.42,33.73,2.22,42.22,5.80,18.25,6.67,0.00,3.76
0,134.58,78.57,96.67,79.47,9.21,5.00,6.50,8.74,8.57,30.00,3.00,11.96,34.19,10.00,66.67,7.23,2.36,1.00,7.50,5.30,47.07,43.33,10.00,13.95,31.92,2.22,37.78,5.35,16.22,0.00,0.00,2.50
0,132.84,77.14,96.67,77.72,9.20,5.00,6.50,8.74,8.60,30.00,3.00,11.97,34.94,10.00,65.00,7.90,2.36,1.00,7.50,5.30,45.09,43.33,10.00,13.50,31.09,2.22,33.33,5.15,16.12,0.00,0.00,2.45
0,130.95,78.57,93.33,76.34,9.20,5.00,6.50,8.74,8.62,30.00,3.00,11.97,33.88,10.00,60.00,7.47,2.36,1.00,7.50,5.30,41.89,36.67,5.00,12.31,29.83,2.22,28.89,4.60,15.55,0.00,0.00,2.30
0,127.89,77.14,86.67,74.51,9.19,5.00,6.50,8.74,8.62,30.00,3.00,11.97,34.08,10.00,58.33,7.64,2.36,1.00,7.50,5.30,37.96,30.00,5.00,10.23,29.28,2.22,26.67,4.52,15.15,0.00,0.00,2.23
0,123.84,74.29,80.00,68.82,9.19,5.00,6.50,8.74,8.61,30.00,3.00,11.97,31.27,0.00,55.00,6.03,2.36,1.00,7.50,5.30,33.57,20.00,5.00,7.12,25.98,0.00,17.78,3.23,14.23,0.00,0.00,1.86
0,123.91,75.71,80.00,67.88,8.32,4.50,5.00,8.54,8.62,30.00,3.00,11.97,32.13,0.00,55.00,6.10,2.36,1.00,7.50,5.30,30.50,10.00,5.00,5.53,24.74,0.00,15.56,2.86,13.73,0.00,0.00,1.82
0,116.33,72.86,66.67,62.76,5.84,3.00,3.00,6.45,8.62,30.00,3.00,11.97,33.00,0.00,58.33,6.22,2.36,1.00,7.50,5.30,27.74,6.67,5.00,4.13,24.60,0.00,15.56,2.88,13.82,0.00,0.00,1.84
0,113.97,72.86,63.33,59.93,4.98,2.50,3.00,4.79,8.61,30.00,3.00,11.97,33.19,0.00,60.00,6.10,2.36,1.00,7.50,5.30,25.23,0.00,0.00,3.00,24.13,0.00,13.33,2.78,13.69,0.00,0.00,1.82
0,117.18,75.71,63.33,61.03,4.94,2.50,3.00,4.78,8.59,30.00,3.00,11.97,34.41,0.00,61.67,6.86,2.36,1.00,7.50,5.30,25.22,0.00,0.00,3.00,23.87,0.00,15.56,2.82,14.11,0.00,0.00,1.93
0,109.85,72.86,53.33,51.85,4.94,2.50,3.00,4.78,8.57,30.00,3.00,11.97,34.56,0.00,61.67,7.10,2.36,1.00,7.50,5.30,24.90,0.00,0.00,2.99,24.35,0.00,17.78,2.86,14.12,0.00,0.00,1.98
0,108.63,72.86,53.33,49.56,5.21,2.50,3.00,4.83,8.57,30.00,3.00,11.97,35.23,0.00,63.33,7.41,2.36,1.00,7.50,5.30,23.54,0.00,0.00,2.78,24.43,0.00,15.56,2.84,14.08,0.00,0.00,2.02
0,109.22,72.86,53.33,49.90,6.97,3.50,4.50,6.07,8.58,30.00,3.00,11.97,35.54,0.00,63.33,7.58,2.36,1.00,7.50,5.30,23.08,0.00,0.00,2.57,25.27,0.00,15.56,3.03,14.08,0.00,0.00,2.04
0,108.48,72.86,50.00,48.90,9.57,5.00,6.50,8.47,8.58,30.00,3.00,11.97,35.57,0.00,65.00,7.44,2.36,1.00,7.50,5.30,22.64,0.00,0.00,2.52,25.58,0.00,20.00,3.11,14.14,0.00,0.00,2.11
0,103.09,70.00,40.00,43.92,10.43,5.50,7.00,10.14,7.81,26.67,2.50,11.79,35.25,0.00,61.67,7.47,2.36,1.00,7.50,5.30,21.91,0.00,0.00,2.38,24.93,0.00,15.56,2.99,14.33,0.00,0.00,2.23
0,97.97,65.71,33.33,38.63,10.47,5.50,7.00,10.15,6.38,20.00,2.50,9.50,34.49,0.00,60.00,7.31,2.36,1.00,7.50,5.30,21.17,0.00,0.00,2.33,24.58,0.00,17.78,2.96,14.08,0.00,0.00,2.20
0,93.24,65.71,23.33,34.56,10.47,5.50,7.00,10.15,6.31,20.00,2.50,9.47,35.92,0.00,60.00,8.03,2.36,1.00,7.50,5.30,19.76,0.00,0.00,2.04,24.57,0.00,15.56,3.00,14.60,0.00,0.00,2.26
0,93.39,67.14,26.67,34.99,8.54,4.50,6.00,8.01,6.30,20.00,2.50,9.47,35.25,0.00,56.67,7.93,2.36,1.00,7.50,5.30,19.20,0.00,0.00,1.92,23.85,0.00,13.33,2.78,14.57,0.00,0.00,2.27
0,90.14,64.29,26.67,31.17,6.54,3.50,4.50,5.65,7.94,26.67,3.50,11.80,34.37,0.00,50.00,7.75,2.36,1.00,7.50,5.30,18.57,0.00,0.00,1.75,23.80,0.00,13.33,2.75,13.88,0.00,0.00,2.11
0,87.24,61.43,26.67,28.39,5.95,3.00,4.00,5.37,8.16,26.67,3.50,12.01,33.83,0.00,48.33,7.63,1.49,0.50,5.00,3.20,18.40,0.00,0.00,1.69,24.03,0.00,15.56,2.72,13.61,0.00,0.00,2.14
0,83.57,58.57,23.33,25.35,6.86,3.50,4.50,5.77,6.71,20.00,3.00,10.17,32.49,0.00,46.67,7.10,1.28,0.50,5.00,2.91,17.39,0.00,0.00,1.45,23.00,0.00,15.56,2.59,13.84,0.00,0.00,2.23
0,80.34,54.29,23.33,23.60,7.63,4.50,5.00,6.64,4.68,13.33,2.00,6.56,32.02,0.00,45.00,7.03,0.01,0.00,0.00,0.00,17.38,0.00,0.00,1.44,23.06,0.00,15.56,2.59,13.81,0.00,0.00,2.26
0,79.33,55.71,20.00,22.70,7.76,4.50,5.00,6.67,2.76,6.67,1.00,2.66,32.55,0.00,45.00,7.16,0.00,0.00,0.00,0.00,16.80,0.00,0.00,1.40,22.87,0.00,15.56,2.56,13.92,0.00,0.00,2.31
0,82.79,61.43,20.00,23.53,7.78,4.50,5.00,6.67,5.00,13.33,2.00,6.09,31.18,0.00,45.00,6.60,0.00,0.00,0.00,0.00,16.50,0.00,0.00,1.39,22.28,0.00,15.56,2.46,14.09,0.00,0.00,2.39
0,81.38,60.00,20.00,23.16,7.79,4.50,5.00,6.67,6.76,20.00,3.00,9.82,31.94,0.00,46.67,6.58,0.00,0.00,0.00,0.00,16.64,0.00,0.00,1.42,21.50,0.00,15.56,2.27,14.14,0.00,0.00,2.39
0,79.17,55.71,16.67,22.52,7.79,4.50,5.00,6.67,6.79,20.00,3.00,9.83,31.53,0.00,48.33,6.42,0.00,0.00,0.00,0.00,16.86,0.00,0.00,1.45,21.74,0.00,15.56,2.37,14.23,0.00,0.00,2.43
0,78.02,54.29,16.67,22.22,7.78,4.50,5.00,6.67,6.80,20.00,3.00,9.83,31.01,0.00,48.33,6.04,0.00,0.00,0.00,0.00,16.36,0.00,0.00,1.33,21.74,0.00,15.56,2.31,14.07,0.00,0.00,2.41
0,74.54,51.43,16.67,20.89,7.78,4.50,5.00,6.67,6.81,20.00,3.00,9.83,31.52,0.00,51.67,6.31,0.00,0.00,0.00,0.00,15.33,0.00,0.00,1.24,21.56,0.00,15.56,2.26,14.00,0.00,0.00,2.44
0,74.31,51.43,16.67,20.70,7.78,4.50,5.00,6.67,6.81,20.00,3.00,9.83,31.89,0.00,50.00,6.37,0.00,0.00,0.00,0.00,15.09,0.00,0.00,1.20,21.28,0.00,15.56,2.21,14.17,0.00,0.00,2.39
0,75.69,54.29,16.67,22.40,7.78,4.50,5.00,6.67,6.81,20.00,3.00,9.83,31.74,0.00,48.33,6.44,0.00,0.00,0.00,0.00,15.05,0.00,0.00,1.20,20.80,0.00,15.56,2.19,13.90,0.00,0.00,2.36
0,72.10,48.57,16.67,21.07,7.78,4.50,5.00,6.67,6.81,20.00,3.00,9.83,30.71,0.00,46.67,6.20,0.00,0.00,0.00,0.00,14.73,0.00,0.00,1.16,20.58,0.00,13.33,2.14,13.81,0.00,0.00,2.35
0,73.12,51.43,20.00,21.36,7.78,4.50,5.00,6.67,6.81,20.00,3.00,9.83,30.06,0.00,43.33,5.79,0.00,0.00,0.00,0.00,14.30,0.00,0.00,1.13,20.59,0.00,11.11,2.13,14.49,0.00,0.00,2.55
0,72.56,50.00,16.67,21.51,7.53,4.50,5.00,6.63,6.81,20.00,3.00,9.83,29.85,0.00,43.33,5.71,0.00,0.00,0.00,0.00,14.28,0.00,0.00,1.11,21.21,0.00,11.11,2.24,15.10,0.00,0.00,2.63
0,72.77,50.00,16.67,21.84,7.02,4.50,5.00,5.95,6.83,20.00,3.00,9.83,31.72,5.00,46.67,6.76,0.00,0.00,0.00,0.00,14.27,0.00,0.00,1.09,20.53,0.00,11.11,2.09,15.65,0.00,0.00,2.71
0,72.70,48.57,16.67,21.68,7.38,4.50,4.50,6.65,6.83,20.00,3.00,9.83,32.18,5.00,48.33,6.92,0.00,0.00,0.00,0.00,15.37,0.00,0.00,1.27,19.98,0.00,6.67,2.03,15.67,0.00,0.00,2.66
0,72.81,47.14,16.67,21.64,5.83,3.50,3.50,4.22,6.83,20.00,3.00,9.83,32.12,5.00,45.00,7.07,0.00,0.00,0.00,0.00,16.32,0.00,0.00,1.47,20.07,0.00,6.67,2.09,15.47,0.00,0.00,2.53
0,71.47,47.14,16.67,21.38,7.48,4.50,4.50,6.52,6.83,20.00,3.00,9.83,33.13,5.00,48.33,7.44,0.00,0.00,0.00,0.00,17.33,0.00,0.00,1.75,19.92,0.00,4.44,2.22,15.59,0.00,0.00,2.50
0,73.36,48.57,23.33,22.86,7.51,4.50,4.50,6.53,6.83,20.00,3.00,9.83,32.16,5.00,45.00,7.28,0.00,0.00,0.00,0.00,17.50,0.00,0.00,1.81,19.82,0.00,4.44,2.11,14.80,0.00,0.00,2.38
0,73.36,45.71,20.00,23.75,7.52,4.50,4.50,6.53,6.83,20.00,3.00,9.83,32.16,5.00,45.00,7.05,0.00,0.00,0.00,0.00,18.07,0.00,0.00,1.91,19.86,0.00,4.44,2.15,15.11,0.00,0.00,2.38
0,73.66,45.71,20.00,23.37,7.52,4.50,4.50,6.53,5.56,16.67,2.00,7.94,32.67,5.00,48.33,7.10,0.00,0.00,0.00,0.00,18.59,0.00,0.00,1.95,19.89,0.00,4.44,2.15,15.12,0.00,0.00,2.30
0,73.16,45.71,16.67,23.26,7.52,4.50,4.50,6.53,6.78,20.00,3.00,10.39,33.13,5.00,53.33,7.15,0.00,0.00,0.00,0.00,18.58,0.00,0.00,1.94,19.49,0.00,2.22,2.09,14.99,0.00,0.00,2.24
0,75.24,48.57,16.67,23.71,7.52,4.50,4.50,6.53,7.15,20.00,3.00,10.81,33.80,5.00,55.00,7.26,0.00,0.00,0.00,0.00,18.40,0.00,0.00,1.89,19.69,0.00,2.22,2.16,14.68,0.00,0.00,2.10
0,77.16,50.00,13.33,24.62,6.05,3.50,3.50,5.33,7.18,20.00,3.00,10.82,34.26,5.00,56.67,7.26,0.00,0.00,0.00,0.00,18.50,0.00,0.00,1.92,19.82,0.00,2.22,2.29,14.06,0.00,0.00,1.99
0,75.82,48.57,13.33,24.30,6.68,3.50,4.00,5.69,6.99,20.00,3.00,10.78,34.12,5.00,55.00,7.54,0.00,0.00,0.00,0.00,19.23,0.00,0.00,2.02,20.24,0.00,2.22,2.34,14.01,0.00,0.00,1.96
0,77.09,48.57,16.67,25.92,7.29,4.00,4.50,6.57,5.04,13.33,2.00,7.52,34.76,5.00,56.67,7.64,0.00,0.00,0.00,0.00,19.12,0.00,0.00,2.02,20.84,0.00,2.22,2.42,13.79,0.00,0.00,1.86
0,75.25,44.29,16.67,25.28,7.31,4.00,4.50,6.58,3.54,10.00,1.00,3.93,34.79,5.00,56.67,7.69,0.00,0.00,0.00,0.00,19.18,0.00,0.00,2.02,21.47,0.00,2.22,2.48,13.94,0.00,0.00,1.89
0,76.47,45.71,16.67,25.56,7.31,4.00,4.50,6.58,5.78,16.67,2.00,7.42,34.66,5.00,56.67,7.54,0.00,0.00,0.00,0.00,18.71,0.00,0.00,1.94,21.27,0.00,2.22,2.41,13.55,0.00,0.00,1.80
0,77.91,47.14,16.67,26.38,7.31,4.00,4.50,6.58,7.55,23.33,3.00,11.15,34.56,5.00,58.33,7.53,0.00,0.00,0.00,0.00,18.65,0.00,0.00,1.94,21.36,0.00,2.22,2.43,13.94,0.00,0.00,1.85
0,78.88,48.57,16.67,26.77,7.31,4.00,4.50,6.58,7.59,23.33,3.00,11.16,36.86,5.00,63.33,8.19,0.00,0.00,0.00,0.00,18.69,0.00,0.00,1.96,21.38,0.00,2.22,2.48,14.15,0.00,0.00,1.82
0,79.52,48.57,16.67,26.78,7.31,4.00,4.50,6.58,7.57,23.33,3.00,11.16,37.05,5.00,65.00,8.18,0.00,0.00,0.00,0.00,18.93,0.00,0.00,2.01,21.68,0.00,2.22,2.55,14.03,0.00,0.00,1.86
0,77.61,45.71,16.67,25.42,7.31,4.00,4.50,6.58,7.57,23.33,3.00,11.16,36.23,5.00,61.67,7.98,0.00,0.00,0.00,0.00,18.84,0.00,0.00,2.02,21.71,0.00,2.22,2.53,14.13,0.00,0.00,1.81
0,77.62,44.29,16.67,25.40,7.31,4.00,4.50,6.58,7.59,23.33,3.00,11.16,36.07,5.00,63.33,7.76,0.00,0.00,0.00,0.00,19.41,0.00,0.00,2.07,21.74,0.00,2.22,2.48,14.34,0.00,0.00,1.82
0,78.32,42.86,16.67,25.60,7.31,4.00,4.50,6.58,7.62,23.33,3.00,11.16,35.45,5.00,61.67,7.47,0.00,0.00,0.00,0.00,20.38,0.00,0.00,2.17,22.14,0.00,2.22,2.56,13.75,0.00,0.00,1.57
0,75.02,38.57,13.33,23.55,7.31,4.00,4.50,6.58,7.62,23.33,3.00,11.16,35.19,5.00,58.33,7.38,0.00,0.00,0.00,0.00,20.11,0.00,0.00,2.15,20.71,0.00,2.22,2.37,13.54,0.00,0.00,1.60
0,73.00,35.71,13.33,22.09,6.62,3.50,3.50,6.19,7.61,23.33,3.00,11.16,34.27,0.00,58.33,6.40,0.00,0.00,0.00,0.00,20.44,0.00,0.00,2.23,21.02,0.00,2.22,2.49,13.12,0.00,0.00,1.56
0,73.55,35.71,13.33,21.93,4.50,2.00,2.00,3.92,7.60,23.33,3.00,11.16,33.06,0.00,55.00,6.14,0.00,0.00,0.00,0.00,20.05,0.00,0.00,2.18,21.18,0.00,2.22,2.56,13.16,0.00,0.00,1.56
0,72.65,35.71,13.33,22.07,4.23,2.00,2.00,3.68,7.60,23.33,3.00,11.16,32.76,0.00,55.00,5.96,0.00,0.00,0.00,0.00,20.36,3.33,0.00,2.28,20.73,0.00,2.22,2.46,13.20,0.00,0.00,1.58
0,71.07,35.71,13.33,21.97,2.20,1.00,1.00,1.39,7.60,23.33,3.00,11.16,32.63,0.00,56.67,5.86,0.00,0.00,0.00,0.00,19.68,3.33,0.00,2.14,20.14,0.00,0.00,2.23,13.51,0.00,0.00,1.65
0,68.76,32.86,6.67,20.23,2.07,1.00,1.00,1.36,7.60,23.33,3.00,11.16,34.02,0.00,60.00,6.13,0.00,0.00,0.00,0.00,18.21,3.33,0.00,1.69,20.32,0.00,0.00,2.18,14.30,0.00,0.00,1.92
0,65.59,28.57,3.33,18.48,2.23,1.00,1.00,1.37,7.60,23.33,3.00,11.16,33.46,0.00,61.67,5.96,0.00,0.00,0.00,0.00,17.42,3.33,0.00,1.59,20.44,0.00,0.00,2.19,14.47,0.00,0.00,2.00
0,63.44,27.14,3.33,17.78,2.85,1.50,2.00,1.64,7.60,23.33,3.00,11.16,33.78,0.00,60.00,6.18,0.00,0.00,0.00,0.00,17.37,3.33,0.00,1.58,20.35,0.00,0.00,2.24,13.88,0.00,0.00,1.94
0,62.73,25.71,3.33,17.97,4.41,3.00,3.00,2.89,6.31,20.00,2.00,9.98,34.08,0.00,56.67,6.47,0.00,0.00,0.00,0.00,17.11,3.33,0.00,1.56,20.48,0.00,0.00,2.29,14.24,0.00,0.00,2.12
0,63.63,25.71,3.33,19.06,6.44,4.00,4.50,5.28,5.39,16.67,2.00,7.65,33.21,0.00,53.33,6.41,0.00,0.00,0.00,0.00,16.81,3.33,0.00,1.56,20.35,0.00,0.00,2.30,14.46,0.00,0.00,2.16
0,63.90,24.29,3.33,20.33,6.68,4.00,4.50,5.45,5.29,16.67,2.00,7.63,33.66,0.00,55.00,6.71,0.00,0.00,0.00,0.00,16.67,3.33,0.00,1.51,20.23,0.00,0.00,2.19,14.51,0.00,0.00,2.18
0,63.51,22.86,3.33,19.91,6.69,4.00,4.50,5.45,5.29,16.67,2.00,7.63,33.16,0.00,53.33,6.41,0.00,0.00,0.00,0.00,16.32,3.33,0.00,1.44,20.50,0.00,0.00,2.19,14.96,0.00,0.00,2.34
0,62.12,22.86,3.33,18.74,5.10,3.00,3.50,4.11,5.29,16.67,2.00,7.63,31.89,0.00,51.67,5.99,0.00,0.00,0.00,0.00,16.57,3.33,0.00,1.46,20.53,0.00,2.22,2.21,14.84,0.00,0.00,2.36
0,60.01,20.00,0.00,17.54,5.06,3.00,3.50,4.10,4.71,13.33,2.00,7.32,32.83,0.00,51.67,6.48,0.00,0.00,0.00,0.00,16.51,3.33,0.00,1.47,19.91,0.00,2.22,2.19,14.64,0.00,0.00,2.32
0,60.29,21.43,0.00,17.68,5.07,3.00,3.50,4.10,2.74,6.67,1.00,3.99,32.85,0.00,51.67,6.49,0.00,0.00,0.00,0.00,16.66,3.33,0.00,1.50,20.42,0.00,2.22,2.27,15.04,0.00,0.00,2.39
0,58.64,20.00,0.00,17.91,5.07,3.00,3.50,4.10,0.65,0.00,0.00,0.06,33.49,0.00,51.67,6.89,0.00,0.00,0.00,0.00,16.68,3.33,0.00,1.49,20.21,0.00,2.22,2.24,14.95,0.00,0.00,2.38
0,57.68,18.57,0.00,17.23,5.07,3.00,3.50,4.10,2.40,6.67,1.00,3.12,32.28,0.00,46.67,6.73,0.00,0.00,0.00,0.00,16.74,3.33,0.00,1.50,19.94,0.00,2.22,2.22,14.89,0.00,0.00,2.43
0,59.03,20.00,0.00,17.74,5.07,3.00,3.50,4.10,3.76,13.33,1.00,4.91,31.51,0.00,45.00,6.28,0.00,0.00,0.00,0.00,16.68,3.33,0.00,1.48,20.46,0.00,2.22,2.25,14.82,0.00,0.00,2.45
0,57.46,18.57,0.00,16.97,5.08,3.00,3.50,4.11,4.08,13.33,1.00,5.11,31.96,0.00,46.67,6.35,0.00,0.00,0.00,0.00,16.46,3.33,0.00,1.43,20.30,0.00,2.22,2.17,14.71,0.00,0.00,2.46
0,57.24,18.57,0.00,16.80,5.09,3.00,3.50,4.11,4.08,13.33,1.00,5.11,32.52,0.00,48.33,6.56,0.00,0.00,0.00,0.00,16.19,3.33,0.00,1.41,20.48,0.00,2.22,2.20,14.20,0.00,0.00,2.34
0,56.20,18.57,0.00,16.52,6.58,3.50,4.50,5.82,4.04,13.33,1.00,5.11,32.83,0.00,51.67,6.63,0.00,0.00,0.00,0.00,15.70,3.33,0.00,1.34,20.31,0.00,2.22,2.18,14.16,0.00,0.00,2.35
0,58.41,21.43,3.33,17.20,7.43,4.50,4.50,6.47,4.05,13.33,1.00,5.11,33.67,0.00,55.00,6.96,0.00,0.00,0.00,0.00,15.10,3.33,0.00,1.27,20.78,0.00,2.22,2.28,14.42,0.00,0.00,2.37
0,57.95,21.43,3.33,16.90,7.49,4.50,4.50,6.48,4.33,13.33,1.00,5.14,32.57,0.00,51.67,6.72,0.00,0.00,0.00,0.00,14.51,3.33,0.00,1.18,20.64,0.00,2.22,2.17,14.03,0.00,0.00,2.31
0,57.49,21.43,3.33,16.62,7.48,4.50,4.50,6.48,5.96,20.00,1.50,6.43,32.52,0.00,55.00,6.70,0.00,0.00,0.00,0.00,14.24,3.33,0.00,1.10,19.69,0.00,2.22,1.95,14.37,0.00,0.00,2.35
0,57.93,22.86,10.00,16.71,7.47,4.50,4.50,6.48,8.10,26.67,3.00,11.20,32.02,0.00,55.00,6.47,0.00,0.00,0.00,0.00,14.12,3.33,0.00,1.09,20.07,0.00,2.22,1.97,14.12,0.00,0.00,2.32
0,58.91,24.29,10.00,16.80,7.46,4.50,4.50,6.48,8.79,30.00,3.00,12.13,31.65,0.00,53.33,6.39,0.00,0.00,0.00,0.00,12.72,0.00,0.00,0.76,20.02,0.00,2.22,1.97,14.16,0.00,0.00,2.45
0,58.13,22.86,10.00,16.13,7.46,4.50,4.50,6.48,8.81,30.00,3.00,12.14,30.28,0.00,51.67,5.94,0.00,0.00,0.00,0.00,12.68,0.00,0.00,0.74,20.82,0.00,4.44,2.08,13.50,0.00,0.00,2.28
0,58.27,24.29,10.00,15.98,7.45,4.50,4.50,6.48,8.81,30.00,3.00,12.14,30.58,0.00,51.67,6.18,0.00,0.00,0.00,0.00,12.60,0.00,0.00,0.69,20.81,0.00,4.44,2.06,13.21,0.00,0.00,2.13
0,57.86,24.29,10.00,15.51,7.06,4.50,4.00,6.44,8.80,30.00,3.00,12.14,29.27,0.00,50.00,5.71,0.00,0.00,0.00,0.00,12.44,0.00,0.00,0.68,20.53,0.00,4.44,2.01,13.18,0.00,0.00,2.13
0,58.28,24.29,10.00,15.23,5.53,3.00,2.50,5.68,8.80,30.00,3.00,12.14,30.39,0.00,56.67,5.75,0.00,0.00,0.00,0.00,12.27,0.00,0.00,0.68,20.60,0.00,4.44,1.96,13.55,0.00,0.00,2.20
0,57.15,22.86,10.00,14.58,3.53,2.00,1.00,3.00,8.80,30.00,3.00,12.14,30.57,0.00,56.67,5.86,0.00,0.00,0.00,0.00,12.22,0.00,0.00,0.66,20.72,0.00,4.44,1.95,13.04,0.00,0.00,2.02
0,52.67,18.57,10.00,11.15,2.84,1.50,1.00,2.38,8.80,30.00,3.00,12.14,30.04,0.00,56.67,5.45,0.00,0.00,0.00,0.00,12.33,0.00,0.00,0.68,20.84,0.00,4.44,1.95,13.60,0.00,0.00,2.17
0,51.97,18.57,10.00,10.99,2.82,1.50,1.00,2.38,8.80,30.00,3.00,12.14,30.15,0.00,56.67,5.40,0.00,0.00,0.00,0.00,12.16,0.00,0.00,0.68,20.88,0.00,4.44,1.93,14.18,0.00,0.00,2.27
0,52.43,20.00,10.00,11.55,2.80,1.50,1.00,2.38,8.80,30.00,3.00,12.14,30.31,0.00,58.33,5.45,0.00,0.00,0.00,0.00,12.35,0.00,0.00,0.68,20.72,0.00,2.22,1.88,14.53,0.00,0.00,2.28
0,53.07,20.00,10.00,11.89,2.80,1.50,1.00,2.37,8.80,30.00,3.00,12.14,29.18,0.00,55.00,4.93,0.00,0.00,0.00,0.00,12.19,0.00,0.00,0.67,20.94,0.00,2.22,1.89,14.44,0.00,0.00,2.29
0,54.01,20.00,10.00,12.21,2.80,1.50,1.00,2.37,8.81,30.00,3.00,12.14,29.48,0.00,58.33,5.02,0.00,0.00,0.00,0.00,12.12,0.00,0.00,0.66,20.47,0.00,2.22,1.80,14.71,0.00,0.00,2.37
0,52.48,17.14,10.00,11.13,2.80,1.50,1.00,2.37,8.77,30.00,3.00,12.13,29.29,0.00,60.00,4.82,0.00,0.00,0.00,0.00,12.42,0.00,0.00,0.74,20.57,0.00,2.22,1.79,14.73,0.00,0.00,2.39
0,52.63,17.14,10.00,11.19,2.82,1.50,1.00,2.38,7.47,26.67,2.00,10.96,29.45,0.00,60.00,4.81,0.00,0.00,0.00,0.00,12.60,0.00,0.00,0.76,20.59,0.00,2.22,1.76,15.14,0.00,0.00,2.49
0,53.14,15.71,13.33,11.71,3.24,2.00,1.50,2.49,5.84,20.00,2.00,7.53,29.51,0.00,58.33,4.86,0.00,0.00,0.00,0.00,12.78,0.00,0.00,0.78,20.45,0.00,2.22,1.74,14.96,0.00,0.00,2.49
0,52.93,15.71,13.33,11.61,4.76,3.00,2.50,3.77,5.25,16.67,2.00,7.05,30.43,0.00,65.00,4.91,0.00,0.00,0.00,0.00,13.29,0.00,0.00,0.85,20.74,0.00,4.44,1.83,15.24,0.00,0.00,2.43
0,53.10,14.29,13.33,11.77,6.87,4.00,4.50,5.65,5.21,16.67,2.00,7.04,29.72,0.00,61.67,4.68,0.00,0.00,0.00,0.00,13.17,0.00,0.00,0.86,20.63,0.00,4.44,1.77,15.07,0.00,0.00,2.48
0,52.35,14.29,13.33,11.58,9.34,5.50,6.00,8.88,5.21,16.67,2.00,7.04,30.07,0.00,61.67,4.78,0.00,0.00,0.00,0.00,13.91,0.00,0.00,0.97,20.81,0.00,4.44,1.82,15.49,0.00,0.00,2.67
0,51.56,14.29,10.00,11.61,8.43,4.50,6.00,8.32,5.20,16.67,2.00,7.04,29.31,0.00,60.00,4.47,0.00,0.00,0.00,0.00,14.05,0.00,0.00,0.98,20.41,0.00,4.44,1.73,15.17,0.00,0.00,2.62
0,51.27,12.86,10.00,11.03,8.28,4.50,6.00,8.23,5.02,16.67,2.00,7.01,30.00,0.00,63.33,4.59,0.00,0.00,0.00,0.00,14.27,0.00,0.00,0.99,20.73,0.00,4.44,1.75,15.50,0.00,0.00,2.68
0,51.08,14.29,10.00,11.22,8.28,4.50,6.00,8.23,4.48,13.33,2.00,6.74,29.64,0.00,60.00,4.55,0.00,0.00,0.00,0.00,14.55,0.00,0.00,1.02,21.30,0.00,4.44,1.83,15.41,0.00,0.00,2.67
0,48.18,10.00,3.33,10.11,8.28,4.50,6.00,8.23,2.26,6.67,0.50,3.73,30.12,0.00,61.67,4.73,0.00,0.00,0.00,0.00,14.48,0.00,0.00,1.03,21.30,0.00,4.44,1.87,14.92,0.00,0.00,2.59
0,47.43,10.00,3.33,9.75,8.29,4.50,6.00,8.23,0.48,0.00,0.00,0.02,29.78,0.00,60.00,4.59,0.00,0.00,0.00,0.00,14.73,0.00,0.00,1.06,21.28,0.00,4.44,1.89,14.83,0.00,0.00,2.58
0,47.37,10.00,3.33,10.03,8.29,4.50,6.00,8.23,2.50,10.00,1.00,3.45,30.40,0.00,61.67,4.58,0.00,0.00,0.00,0.00,14.67,0.00,0.00,1.08,20.77,0.00,2.22,1.81,14.76,0.00,0.00,2.54
0,47.99,10.00,3.33,10.02,8.31,4.50,6.00,8.23,4.65,16.67,2.00,7.20,29.36,0.00,56.67,4.27,0.00,0.00,0.00,0.00,14.51,0.00,0.00,1.09,20.37,0.00,2.22,1.76,14.75,0.00,0.00,2.51
0,47.70,10.00,3.33,10.02,8.32,4.50,6.00,8.23,5.57,23.33,2.00,8.20,30.29,0.00,60.00,4.48,0.00,0.00,0.00,0.00,14.24,0.00,0.00,1.08,20.39,0.00,2.22,1.80,15.03,0.00,0.00,2.55
0,47.45,10.00,3.33,10.13,8.32,4.50,6.00,8.23,5.64,23.33,2.00,8.21,29.72,0.00,55.00,4.39,0.00,0.00,0.00,0.00,14.11,0.00,0.00,1.06,19.74,0.00,2.22,1.71,14.88,0.00,0.00,2.56
0,47.02,11.43,3.33,9.89,8.33,4.50,6.00,8.23,5.67,23.33,2.00,8.21,28.53,0.00,55.00,4.14,0.00,0.00,0.00,0.00,14.26,0.00,0.00,1.09,19.74,0.00,2.22,1.76,14.79,0.00,0.00,2.52
0,47.14,11.43,3.33,10.25,9.95,5.50,7.00,9.71,5.66,23.33,2.00,8.21,28.30,0.00,51.67,4.09,0.00,0.00,0.00,0.00,14.17,0.00,0.00,1.06,19.26,0.00,2.22,1.72,14.71,0.00,0.00,2.53
0,46.75,11.43,3.33,10.14,10.33,6.00,7.00,9.85,5.67,23.33,2.00,8.21,27.88,0.00,53.33,3.99,0.00,0.00,0.00,0.00,14.19,0.00,0.00,1.08,18.89,0.00,2.22,1.72,13.96,0.00,0.00,2.41
0,44.18,8.57,3.33,9.05,10.34,6.00,7.00,9.85,6.70,30.00,2.00,9.16,27.78,0.00,53.33,4.00,0.00,0.00,0.00,0.00,14.01,0.00,0.00,1.03,18.75,0.00,2.22,1.70,13.67,0.00,0.00,2.35
0,45.46,8.57,3.33,9.23,10.34,6.00,7.00,9.85,8.71,36.67,3.00,12.62,27.92,0.00,55.00,4.00,0.00,0.00,0.00,0.00,14.21,0.00,0.00,1.08,18.67,0.00,2.22,1.70,13.81,0.00,0.00,2.49
0,44.80,8.57,3.33,8.81,10.34,6.00,7.00,9.85,10.84,43.33,4.00,16.61,27.87,0.00,55.00,3.98,0.00,0.00,0.00,0.00,14.20,0.00,0.00,1.08,18.51,0.00,2.22,1.69,13.40,0.00,0.00,2.38
0,44.43,8.57,3.33,8.67,10.35,6.00,7.00,9.85,10.98,43.33,4.00,16.66,27.61,0.00,51.67,3.95,0.00,0.00,0.00,0.00,14.26,0.00,0.00,1.04,18.28,0.00,2.22,1.69,13.17,0.00,0.00,2.32
0,45.28,10.00,3.33,8.99,10.34,6.00,7.00,9.85,10.99,43.33,4.00,16.66,27.36,0.00,53.33,3.80,0.00,0.00,0.00,0.00,13.70,0.00,0.00,0.98,18.02,0.00,2.22,1.67,13.46,0.00,0.00,2.35
0,41.88,8.57,0.00,7.83,10.02,5.50,6.50,9.76,10.98,43.33,4.00,16.66,27.62,0.00,56.67,3.96,0.00,0.00,0.00,0.00,13.65,0.00,0.00,0.96,18.14,0.00,2.22,1.74,13.28,0.00,0.00,2.33
0,44.08,12.86,0.00,8.45,8.51,4.50,5.50,8.57,10.97,43.33,4.00,16.66,26.45,0.00,50.00,3.83,0.00,0.00,0.00,0.00,13.43,0.00,0.00,0.91,17.60,0.00,0.00,1.64,13.46,0.00,0.00,2.33
0,44.88,12.86,0.00,8.43,6.73,3.50,4.00,6.70,10.97,43.33,4.00,16.66,26.08,0.00,50.00,3.68,0.00,0.00,0.00,0.00,13.13,0.00,0.00,0.87,17.60,0.00,0.00,1.66,13.38,0.00,0.00,2.26
0,45.18,12.86,0.00,8.38,4.65,2.50,2.00,4.14,10.97,43.33,4.00,16.66,25.92,0.00,50.00,3.82,0.00,0.00,0.00,0.00,12.36,0.00,0.00,0.79,16.77,0.00,0.00,1.54,13.52,0.00,0.00,2.26
0,44.86,11.43,0.00,8.47,2.55,1.50,1.00,1.63,10.99,43.33,4.00,16.66,26.14,0.00,48.33,3.95,0.00,0.00,0.00,0.00,12.37,0.00,0.00,0.76,16.86,0.00,0.00,1.55,14.05,0.00,0.00,2.34
0,44.62,12.86,0.00,9.01,2.49,1.50,1.00,1.62,11.00,43.33,4.00,16.66,26.19,0.00,46.67,3.96,0.00,0.00,0.00,0.00,12.09,0.00,0.00,0.73,17.12,0.00,0.00,1.66,13.70,0.00,0.00,2.23
0,43.93,11.43,0.00,8.82,2.49,1.50,1.00,1.62,10.99,43.33,4.00,16.66,26.42,0.00,48.33,4.14,0.00,0.00,0.00,0.00,12.20,0.00,0.00,0.72,16.86,0.00,0.00,1.69,13.93,0.00,0.00,2.27
0,44.08,11.43,0.00,8.95,2.49,1.50,1.00,1.62,10.99,43.33,4.00,16.66,27.00,0.00,50.00,4.30,0.00,0.00,0.00,0.00,12.53,0.00,0.00,0.74,17.32,0.00,0.00,1.71,14.22,0.00,0.00,2.33
0,44.82,11.43,0.00,9.40,2.48,1.50,1.00,1.62,10.99,43.33,4.00,16.66,27.93,0.00,51.67,4.40,0.00,0.00,0.00,0.00,12.47,0.00,0.00,0.72,17.50,0.00,0.00,1.67,14.36,0.00,0.00,2.27
0,43.85,10.00,0.00,9.19,2.48,1.50,1.00,1.62,9.10,33.33,3.00,13.55,28.24,0.00,51.67,4.55,0.00,0.00,0.00,0.00,12.24,0.00,0.00,0.69,17.36,0.00,0.00,1.65,14.50,0.00,0.00,2.26
0,43.16,10.00,0.00,9.16,2.47,1.50,1.00,1.62,7.03,26.67,2.00,9.74,28.57,0.00,53.33,4.67,0.00,0.00,0.00,0.00,12.48,0.00,0.00,0.70,17.66,0.00,0.00,1.74,14.90,0.00,0.00,2.35
0,43.38,10.00,0.00,9.24,2.69,2.00,1.50,1.65,5.92,20.00,2.00,8.48,28.33,0.00,53.33,4.56,0.00,0.00,0.00,0.00,12.64,0.00,0.00,0.69,18.12,0.00,0.00,1.92,15.03,0.00,0.00,2.34
0,43.82,11.43,0.00,9.66,3.35,2.50,2.50,1.94,5.85,20.00,2.00,8.47,28.70,0.00,55.00,4.61,0.00,0.00,0.00,0.00,12.64,0.00,0.00,0.70,18.62,0.00,2.22,2.01,15.37,0.00,0.00,2.42
0,44.11,11.43,0.00,9.92,5.40,3.50,4.00,4.12,5.78,20.00,2.00,8.46,29.09,0.00,53.33,4.69,0.00,0.00,0.00,0.00,12.40,0.00,0.00,0.69,18.65,0.00,2.22,2.00,15.63,0.00,0.00,2.41
0,45.65,12.86,0.00,11.04,5.96,3.50,4.50,5.32,5.78,20.00,2.00,8.46,29.68,0.00,56.67,4.87,0.00,0.00,0.00,0.00,12.29,0.00,0.00,0.67,18.82,0.00,2.22,2.01,15.65,0.00,0.00,2.33
0,45.53,12.86,0.00,11.11,5.72,3.00,4.50,5.23,5.78,20.00,2.00,8.46,29.62,0.00,55.00,4.92,0.00,0.00,0.00,0.00,12.48,0.00,0.00,0.67,19.35,0.00,2.22,2.01,15.74,0.00,0.00,2.31
0,45.75,12.86,0.00,11.33,5.69,3.00,4.50,5.22,5.06,16.67,2.00,8.09,29.36,0.00,55.00,4.85,0.00,0.00,0.00,0.00,12.80,0.00,0.00,0.73,19.68,0.00,2.22,2.07,16.18,0.00,0.00,2.37
0,45.76,12.86,0.00,11.23,5.68,3.00,4.50,5.22,3.21,10.00,1.00,4.69,30.29,0.00,55.00,5.12,0.00,0.00,0.00,0.00,12.75,0.00,0.00,0.66,20.06,0.00,2.22,2.16,15.74,0.00,0.00,2.15
0,44.04,12.86,0.00,10.89,5.69,3.00,4.50,5.22,0.78,0.00,0.00,0.39,29.97,0.00,53.33,5.08,0.00,0.00,0.00,0.00,12.81,0.00,0.00,0.66,20.03,0.00,2.22,2.19,15.80,0.00,0.00,2.18
0,44.42,12.86,0.00,10.94,5.68,3.00,4.50,5.22,0.49,0.00,0.00,0.01,30.53,0.00,60.00,5.17,0.00,0.00,0.00,0.00,12.73,0.00,0.00,0.65,20.90,0.00,2.22,2.33,15.76,0.00,0.00,2.16
0,43.59,12.86,0.00,10.83,5.68,3.00,4.50,5.22,0.51,0.00,0.00,0.01,30.37,0.00,58.33,5.12,0.00,0.00,0.00,0.00,12.76,0.00,0.00,0.65,20.79,0.00,2.22,2.30,15.32,0.00,0.00,2.02
0,43.87,12.86,0.00,10.90,5.68,3.00,4.50,5.22,2.42,10.00,1.00,3.13,29.94,0.00,55.00,5.00,0.00,0.00,0.00,0.00,12.98,0.00,0.00,0.66,20.78,0.00,2.22,2.21,15.50,0.00,0.00,2.01
0,42.15,8.57,0.00,10.31,5.68,3.00,4.50,5.22,4.12,16.67,1.50,5.79,30.03,0.00,56.67,4.96,0.00,0.00,0.00,0.00,13.08,0.00,0.00,0.66,20.81,0.00,2.22,2.21,15.15,0.00,0.00,1.96
0,42.26,10.00,0.00,10.31,5.68,3.00,4.50,5.22,4.54,20.00,1.50,6.11,30.51,0.00,56.67,5.13,0.00,0.00,0.00,0.00,12.89,0.00,0.00,0.63,21.33,0.00,2.22,2.39,15.12,0.00,0.00,1.95
0,41.83,10.00,0.00,10.18,5.67,3.00,4.50,5.22,4.56,20.00,1.50,6.11,30.07,0.00,60.00,4.92,0.00,0.00,0.00,0.00,12.90,0.00,0.00,0.64,21.63,0.00,2.22,2.42,14.71,0.00,0.00,1.87
0,42.42,10.00,0.00,10.43,6.97,3.50,5.50,6.59,4.56,20.00,1.50,6.11,30.53,0.00,63.33,4.97,0.00,0.00,0.00,0.00,12.78,0.00,0.00,0.64,21.60,0.00,2.22,2.41,14.46,0.00,0.00,1.80
0,41.03,8.57,0.00,9.67,8.02,4.50,6.50,7.30,4.53,20.00,1.50,6.11,31.09,0.00,66.67,5.08,0.00,0.00,0.00,0.00,12.67,0.00,0.00,0.63,21.17,0.00,2.22,2.31,14.07,0.00,0.00,1.73
0,40.96,8.57,0.00,9.59,8.12,4.50,6.50,7.33,4.66,20.00,1.50,6.12,30.47,0.00,65.00,4.89,0.00,0.00,0.00,0.00,12.36,0.00,0.00,0.61,21.31,0.00,2.22,2.25,13.75,0.00,0.00,1.67
0,41.48,8.57,0.00,9.54,8.13,4.50,6.50,7.33,6.00,23.33,2.00,7.09,29.84,0.00,61.67,4.59,0.00,0.00,0.00,0.00,12.04,0.00,0.00,0.60,20.87,0.00,2.22,2.24,13.65,0.00,0.00,1.65
0,41.74,8.57,0.00,9.20,8.12,4.50,6.50,7.33,8.08,30.00,3.00,11.53,29.76,0.00,63.33,4.60,0.00,0.00,0.00,0.00,11.71,0.00,0.00,0.54,21.26,0.00,2.22,2.42,12.86,0.00,0.00,1.52
0,41.68,8.57,0.00,9.43,8.12,4.50,6.50,7.33,8.76,33.33,3.00,12.46,28.49,0.00,60.00,4.30,0.00,0.00,0.00,0.00,11.79,0.00,0.00,0.54,20.90,0.00,2.22,2.38,12.58,0.00,0.00,1.52
0,42.08,8.57,0.00,9.40,8.13,4.50,6.50,7.33,8.78,33.33,3.00,12.46,29.29,0.00,61.67,4.70,0.00,0.00,0.00,0.00,11.53,0.00,0.00,0.51,21.01,0.00,2.22,2.35,11.98,0.00,0.00,1.39
0,41.14,7.14,0.00,9.05,8.14,4.50,6.50,7.33,8.78,33.33,3.00,12.46,29.89,0.00,61.67,4.74,0.00,0.00,0.00,0.00,11.98,0.00,0.00,0.58,21.24,0.00,2.22,2.40,11.97,0.00,0.00,1.38
0,40.82,5.71,0.00,8.81,7.63,4.00,5.50,7.25,8.78,33.33,3.00,12.46,28.72,0.00,56.67,4.49,0.00,0.00,0.00,0.00,12.22,0.00,0.00,0.61,21.26,0.00,0.00,2.34,11.44,0.00,0.00,1.29
0,40.42,5.71,0.00,8.55,5.77,3.00,3.50,6.16,8.78,33.33,3.00,12.46,28.39,0.00,56.67,4.47,0.00,0.00,0.00,0.00,12.35,0.00,0.00,0.62,21.22,0.00,0.00,2.35,11.24,0.00,0.00,1.27
0,39.93,5.71,0.00,7.58,3.59,2.00,2.00,2.75,8.78,33.33,3.00,12.46,29.44,0.00,58.33,4.93,0.00,0.00,0.00,0.00,12.69,0.00,0.00,0.64,21.44,0.00,0.00,2.46,10.63,0.00,0.00,1.19
0,39.45,4.29,0.00,7.28,2.89,1.50,2.00,2.11,8.78,33.33,3.00,12.46,29.12,0.00,56.67,4.90,0.00,0.00,0.00,0.00,13.09,0.00,0.00,0.68,21.76,0.00,0.00,2.53,10.77,0.00,0.00,1.20
0,40.69,5.71,0.00,7.99,2.87,1.50,2.00,2.11,8.77,33.33,3.00,12.46,29.76,0.00,56.67,5.20,0.00,0.00,0.00,0.00,12.93,0.00,0.00,0.67,21.44,0.00,0.00,2.49,10.07,0.00,0.00,1.08
0,40.81,7.14,0.00,8.31,2.87,1.50,2.00,2.11,8.78,33.33,3.00,12.46,29.53,0.00,61.67,5.03,0.00,0.00,0.00,0.00,12.42,0.00,0.00,0.64,20.80,0.00,0.00,2.36,10.05,0.00,0.00,1.07
0,42.20,8.57,0.00,8.89,2.87,1.50,2.00,2.11,8.76,33.33,3.00,12.46,29.68,0.00,61.67,5.01,0.00,0.00,0.00,0.00,12.14,0.00,0.00,0.61,21.06,0.00,0.00,2.40,9.89,0.00,0.00,1.06
0,42.27,8.57,0.00,8.93,2.87,1.50,2.00,2.11,8.76,33.33,3.00,12.46,28.99,0.00,55.00,4.97,0.00,0.00,0.00,0.00,12.07,0.00,0.00,0.61,20.88,0.00,0.00,2.36,10.35,0.00,0.00,1.11
0,42.82,8.57,0.00,9.30,2.86,1.50,2.00,2.11,8.76,33.33,3.00,12.46,28.67,0.00,53.33,4.94,0.00,0.00,0.00,0.00,12.17,0.00,0.00,0.64,21.14,0.00,0.00,2.45,10.44,0.00,0.00,1.15
0,41.96,7.14,0.00,9.16,2.86,1.50,2.00,2.11,7.41,26.67,2.00,11.27,28.75,0.00,53.33,4.95,0.00,0.00,0.00,0.00,12.01,0.00,0.00,0.64,21.51,0.00,0.00,2.57,10.36,0.00,0.00,1.14
0,42.28,8.57,0.00,9.56,3.44,2.00,3.00,2.32,5.50,20.00,1.50,7.14,29.93,0.00,56.67,5.43,0.00,0.00,0.00,0.00,11.76,0.00,0.00,0.63,21.21,0.00,0.00,2.54,10.30,0.00,0.00,1.13
0,44.76,8.57,3.33,11.26,5.16,3.00,4.00,3.97,4.73,13.33,1.50,6.37,29.45,0.00,56.67,5.24,0.00,0.00,0.00,0.00,11.67,0.00,0.00,0.63,21.20,0.00,0.00,2.45,10.16,0.00,0.00,1.13
0,44.70,8.57,3.33,11.74,7.52,4.00,6.00,6.42,4.68,13.33,1.50,6.36,28.73,0.00,50.00,5.18,0.00,0.00,0.00,0.00,11.70,0.00,0.00,0.64,21.16,0.00,0.00,2.43,10.39,0.00,0.00,1.15
0,45.10,10.00,3.33,12.12,8.92,5.00,6.50,8.90,4.68,13.33,1.50,6.36,28.18,0.00,46.67,5.03,0.00,0.00,0.00,0.00,11.67,0.00,0.00,0.64,21.72,0.00,0.00,2.51,10.07,0.00,0.00,1.03
0,45.40,10.00,3.33,12.21,7.18,3.50,5.00,7.03,4.68,13.33,1.50,6.36,27.66,0.00,45.00,4.70,0.00,0.00,0.00,0.00,11.93,0.00,0.00,0.65,21.53,0.00,0.00,2.52,9.91,0.00,0.00,1.00
0,46.47,10.00,3.33,12.54,6.88,3.50,5.00,6.81,4.60,13.33,1.50,6.35,28.12,0.00,46.67,4.88,0.00,0.00,0.00,0.00,12.19,0.00,0.00,0.69,21.54,0.00,0.00,2.57,10.13,0.00,0.00,1.04
0,47.92,11.43,3.33,13.36,6.86,3.50,5.00,6.81,4.31,13.33,1.50,6.27,29.00,0.00,50.00,5.14,0.00,0.00,0.00,0.00,12.30,0.00,0.00,0.72,21.48,0.00,0.00,2.55,10.45,0.00,0.00,1.13
0,48.39,11.43,3.33,14.15,6.87,3.50,5.00,6.81,2.24,6.67,0.50,3.70,28.74,0.00,46.67,5.04,0.00,0.00,0.00,0.00,12.62,0.00,0.00,0.74,21.45,0.00,0.00,2.41,10.43,0.00,0.00,1.14
0,48.17,11.43,3.33,13.97,6.87,3.50,5.00,6.81,0.47,0.00,0.00,0.02,29.37,0.00,48.33,5.19,0.00,0.00,0.00,0.00,12.67,0.00,0.00,0.76,21.51,0.00,0.00,2.41,10.60,0.00,0.00,1.16
0,48.51,11.43,3.33,14.08,6.86,3.50,5.00,6.81,0.44,0.00,0.00,0.01,28.42,0.00,46.67,4.83,0.00,0.00,0.00,0.00,12.31,0.00,0.00,0.73,21.02,0.00,0.00,2.33,10.48,0.00,0.00,1.15
0,49.58,11.43,3.33,14.33,6.87,3.50,5.00,6.81,0.45,0.00,0.00,0.01,28.78,0.00,48.33,4.89,0.00,0.00,0.00,0.00,11.99,0.00,0.00,0.69,20.55,0.00,0.00,2.31,10.22,0.00,0.00,1.12
0,49.00,11.43,3.33,14.26,6.87,3.50,5.00,6.81,1.63,3.33,0.50,0.93,29.45,0.00,51.67,5.14,0.00,0.00,0.00,0.00,11.61,0.00,0.00,0.63,20.27,0.00,0.00,2.17,10.01,0.00,0.00,1.07
0,50.35,12.86,3.33,14.99,6.88,3.50,5.00,6.81,2.88,10.00,1.00,3.26,30.29,0.00,53.33,5.60,0.00,0.00,0.00,0.00,11.55,0.00,0.00,0.63,19.94,0.00,0.00,2.09,10.45,0.00,0.00,1.12
0,51.49,14.29,3.33,15.39,6.88,3.50,5.00,6.81,3.19,13.33,1.00,3.46,29.40,0.00,51.67,5.03,0.00,0.00,0.00,0.00,11.77,0.00,0.00,0.67,20.41,0.00,0.00,2.08,10.76,0.00,0.00,1.18
0,51.30,12.86,3.33,15.41,7.26,4.00,5.50,6.89,3.19,13.33,1.00,3.46,29.24,0.00,51.67,5.01,0.00,0.00,0.00,0.00,11.32,0.00,0.00,0.63,20.21,0.00,0.00,2.00,10.68,0.00,0.00,1.21
0,50.59,11.43,3.33,15.33,9.39,5.00,7.00,8.92,3.19,13.33,1.00,3.46,28.75,0.00,50.00,4.78,0.00,0.00,0.00,0.00,11.13,0.00,0.00,0.60,20.26,0.00,0.00,2.03,11.28,0.00,0.00,1.32
0,50.06,10.00,3.33,14.80,10.76,6.00,8.00,10.38,3.19,13.33,1.00,3.46,28.38,0.00,46.67,4.62,0.00,0.00,0.00,0.00,11.18,0.00,0.00,0.61,20.03,0.00,0.00,2.02,11.51,0.00,0.00,1.42
0,51.01,10.00,3.33,15.01,10.79,6.00,8.00,10.39,3.57,16.67,1.00,3.59,29.12,0.00,46.67,4.95,0.00,0.00,0.00,0.00,11.37,0.00,0.00,0.62,19.98,0.00,0.00,1.99,11.78,0.00,0.00,1.43
0,50.14,8.57,3.33,14.84,10.79,6.00,8.00,10.39,5.28,23.33,1.50,6.02,29.58,0.00,46.67,5.05,0.00,0.00,0.00,0.00,11.67,0.00,0.00,0.65,19.70,0.00,0.00,1.92,12.11,0.00,0.00,1.54
0,50.61,8.57,3.33,15.01,10.79,6.00,8.00,10.39,7.64,30.00,2.50,9.72,29.29,0.00,46.67,4.98,0.00,0.00,0.00,0.00,11.52,0.00,0.00,0.64,19.43,0.00,0.00,1.82,11.79,0.00,0.00,1.49
0,50.88,8.57,3.33,14.76,10.79,6.00,8.00,10.39,9.42,36.67,3.50,13.45,29.80,0.00,48.33,5.17,0.00,0.00,0.00,0.00,11.59,0.00,0.00,0.65,19.22,0.00,0.00,1.75,11.68,0.00,0.00,1.49
0,49.24,7.14,3.33,14.05,10.33,5.50,7.00,10.22,9.46,36.67,3.50,13.47,29.30,0.00,46.67,4.91,0.00,0.00,0.00,0.00,11.84,0.00,0.00,0.65,18.88,0.00,0.00,1.67,11.77,0.00,0.00,1.54
0,46.25,5.71,0.00,11.98,8.61,4.50,6.00,8.67,9.46,36.67,3.50,13.47,29.12,0.00,45.00,4.80,0.00,0.00,0.00,0.00,12.11,0.00,0.00,0.68,18.97,0.00,0.00,1.67,11.94,0.00,0.00,1.57
0,46.33,5.71,0.00,11.68,6.57,3.50,4.50,6.24,9.46,36.67,3.50,13.47,30.20,0.00,46.67,5.15,0.00,0.00,0.00,0.00,12.35,0.00,0.00,0.73,20.10,0.00,2.22,1.91,11.74,0.00,0.00,1.52
0,44.93,4.29,0.00,11.19,4.45,2.50,3.00,3.62,9.47,36.67,3.50,13.47,30.30,0.00,50.00,5.22,0.00,0.00,0.00,0.00,12.61,0.00,0.00,0.77,19.91,0.00,2.22,1.87,11.91,0.00,0.00,1.55
0,45.00,4.29,0.00,11.07,4.31,2.50,3.00,3.58,9.46,36.67,3.50,13.47,30.60,0.00,48.33,5.23,0.00,0.00,0.00,0.00,12.78,0.00,0.00,0.80,19.66,0.00,2.22,1.83,12.26,0.00,0.00,1.61
0,45.01,4.29,0.00,10.78,4.31,2.50,3.00,3.58,9.47,36.67,3.50,13.47,30.24,0.00,48.33,5.29,0.00,0.00,0.00,0.00,12.61,0.00,0.00,0.79,19.92,0.00,2.22,1.83,13.03,0.00,0.00,1.82
0,44.80,4.29,0.00,10.80,4.31,2.50,3.00,3.58,9.47,36.67,3.50,13.47,29.88,0.00,46.67,5.17,0.00,0.00,0.00,0.00,12.77,0.00,0.00,0.77,19.67,0.00,2.22,1.81,13.49,0.00,0.00,1.92
0,43.70,4.29,0.00,10.09,4.31,2.50,3.00,3.58,9.46,36.67,3.50,13.47,29.72,0.00,50.00,5.07,0.00,0.00,0.00,0.00,12.58,0.00,0.00,0.81,20.07,0.00,2.22,1.89,13.63,0.00,0.00,2.05
0,43.45,4.29,0.00,10.12,4.30,2.50,3.00,3.58,9.46,36.67,3.50,13.47,29.95,0.00,51.67,5.22,0.00,0.00,0.00,0.00,13.01,0.00,0.00,0.86,20.16,0.00,2.22,1.93,14.14,0.00,0.00,2.20
0,42.69,4.29,0.00,9.93,4.30,2.50,3.00,3.58,9.46,36.67,3.50,13.47,30.89,0.00,53.33,5.45,0.00,0.00,0.00,0.00,13.25,0.00,0.00,0.93,20.61,0.00,2.22,2.01,14.39,0.00,0.00,2.26
0,42.78,4.29,0.00,9.99,4.29,2.50,3.00,3.58,9.45,36.67,3.50,13.47,30.09,0.00,51.67,5.24,0.00,0.00,0.00,0.00,13.49,0.00,0.00,0.96,20.04,0.00,2.22,1.89,14.67,0.00,0.00,2.34
0,42.41,4.29,0.00,9.70,4.29,2.50,3.00,3.58,9.42,36.67,3.50,13.47,29.84,0.00,53.33,5.02,0.00,0.00,0.00,0.00,13.86,0.00,0.00,1.00,19.64,0.00,2.22,1.82,15.25,0.00,0.00,2.58
0,42.05,2.86,0.00,9.44,4.38,2.50,3.00,3.59,7.50,30.00,2.50,10.75,29.11,0.00,51.67,4.69,0.00,0.00,0.00,0.00,13.96,0.00,0.00,1.02,19.83,0.00,2.22,1.85,14.81,0.00,0.00,2.56
0,43.78,4.29,0.00,10.05,5.19,3.50,4.00,3.96,6.72,23.33,2.50,10.02,29.01,0.00,53.33,4.65,0.00,0.00,0.00,0.00,13.58,0.00,0.00,0.99,19.00,0.00,2.22,1.74,14.57,0.00,0.00,2.54
0,43.70,4.29,0.00,9.85,6.69,4.00,5.00,5.85,6.71,23.33,2.50,10.02,29.47,0.00,55.00,4.83,0.00,0.00,0.00,0.00,13.68,0.00,0.00,1.00,19.19,0.00,2.22,1.81,14.51,0.00,0.00,2.50
0,43.03,4.29,0.00,9.57,6.99,4.00,5.50,6.53,6.71,23.33,2.50,10.02,30.03,0.00,55.00,4.94,0.00,0.00,0.00,0.00,13.98,0.00,0.00,1.04,18.66,0.00,2.22,1.71,14.65,0.00,0.00,2.50
0,43.90,5.71,0.00,10.14,5.51,3.00,4.00,4.99,6.71,23.33,2.50,10.02,29.68,0.00,51.67,5.01,0.00,0.00,0.00,0.00,14.12,0.00,0.00,1.08,18.31,0.00,2.22,1.68,14.72,0.00,0.00,2.58
0,42.88,5.71,0.00,9.90,5.39,3.00,4.00,4.96,6.41,20.00,2.50,9.91,29.67,0.00,55.00,4.78,0.00,0.00,0.00,0.00,14.14,0.00,0.00,1.09,19.02,0.00,2.22,1.73,14.44,0.00,0.00,2.57
0,44.69,7.14,0.00,10.16,5.40,3.00,4.00,4.96,4.75,13.33,2.00,7.67,29.46,0.00,58.33,4.62,0.00,0.00,0.00,0.00,14.56,0.00,0.00,1.15,18.68,0.00,2.22,1.66,14.01,0.00,0.00,2.48
0,44.53,7.14,0.00,9.82,5.40,3.00,4.00,4.96,2.70,6.67,1.00,4.01,29.46,0.00,58.33,4.61,0.00,0.00,0.00,0.00,14.68,0.00,0.00,1.20,18.66,0.00,2.22,1.68,13.91,0.00,0.00,2.42
0,45.86,8.57,0.00,10.18,5.40,3.00,4.00,4.96,0.58,0.00,0.00,0.06,30.34,0.00,60.00,4.99,0.00,0.00,0.00,0.00,15.02,0.00,0.00,1.24,18.93,0.00,2.22,1.83,13.62,0.00,0.00,2.37
0,45.82,8.57,0.00,10.22,5.41,3.00,4.00,4.96,0.44,0.00,0.00,0.01,29.17,0.00,55.00,4.68,0.00,0.00,0.00,0.00,14.66,0.00,0.00,1.22,18.95,0.00,2.22,1.87,13.89,0.00,0.00,2.38
0,46.50,8.57,0.00,10.33,5.41,3.00,4.00,4.96,2.37,10.00,1.00,3.23,29.13,0.00,55.00,4.66,0.00,0.00,0.00,0.00,14.88,0.00,0.00,1.23,19.27,0.00,2.22,1.98,14.11,0.00,0.00,2.49
0,45.52,8.57,0.00,10.11,5.41,3.00,4.00,4.96,4.51,16.67,2.00,7.16,29.00,0.00,58.33,4.44,0.00,0.00,0.00,0.00,14.69,0.00,0.00,1.19,18.62,0.00,0.00,1.77,14.58,0.00,0.00,2.66
0,46.70,8.57,0.00,10.19,5.41,3.00,4.00,4.96,5.47,23.33,2.00,8.13,28.22,0.00,55.00,4.29,0.00,0.00,0.00,0.00,14.58,0.00,0.00,1.17,18.02,0.00,0.00,1.74,14.63,0.00,0.00,2.75
0,48.20,10.00,0.00,10.53,5.42,3.00,4.00,4.96,5.63,23.33,2.00,8.16,29.53,0.00,58.33,4.62,0.00,0.00,0.00,0.00,14.54,0.00,0.00,1.16,18.06,0.00,0.00,1.72,14.60,0.00,0.00,2.75
0,49.89,12.86,0.00,11.06,5.53,3.00,4.00,4.97,5.63,23.33,2.00,8.16,29.30,0.00,56.67,4.57,0.00,0.00,0.00,0.00,15.08,0.00,0.00,1.23,18.26,0.00,0.00,1.84,13.99,0.00,0.00,2.59
0,50.66,14.29,0.00,11.49,7.11,4.00,5.00,6.41,5.64,23.33,2.00,8.16,29.64,0.00,58.33,4.60,0.00,0.00,0.00,0.00,15.56,0.00,0.00,1.33,19.26,0.00,2.22,2.21,14.60,0.00,0.00,2.79
0,52.65,17.14,6.67,12.28,7.51,4.50,5.00,6.62,5.64,23.33,2.00,8.16,30.08,0.00,55.00,4.87,0.00,0.00,0.00,0.00,16.62,0.00,0.00,1.68,19.96,0.00,2.22,2.41,15.08,0.00,0.00,3.25
0,58.90,24.29,16.67,14.54,7.53,4.50,5.00,6.62,6.26,26.67,2.00,8.62,31.11,0.00,56.67,5.47,0.00,0.00,0.00,0.00,20.11,6.67,0.00,3.29,22.38,0.00,11.11,3.32,15.53,0.00,0.00,3.67
1,63.06,30.00,16.67,17.06,7.53,4.50,5.00,6.62,7.99,36.67,2.50,10.89,31.99,0.00,56.67,5.60,0.00,0.00,0.00,0.00,21.04,6.67,0.00,3.78,23.51,0.00,11.11,3.71,17.90,6.67,0.00,4.92
1,68.10,37.14,26.67,19.08,7.54,4.50,5.00,6.62,10.03,43.33,3.50,14.54,34.15,0.00,61.67,6.52,0.00,0.00,0.00,0.00,21.66,6.67,0.00,3.82,28.63,6.67,15.56,7.50,20.20,13.33,0.00,7.87
1,71.59,41.43,26.67,22.47,7.56,4.50,5.00,6.62,10.27,43.33,3.50,14.80,36.47,0.00,68.33,7.11,0.00,0.00,0.00,0.00,22.27,6.67,0.00,3.98,33.64,13.33,24.44,10.25,21.59,13.33,0.00,8.71
1,74.95,44.29,26.67,24.34,7.54,4.50,5.00,6.62,10.27,43.33,3.50,14.80,37.82,0.00,70.00,7.63,0.00,0.00,0.00,0.00,24.89,10.00,0.00,4.56,38.58,20.00,33.33,12.50,21.85,13.33,0.00,8.84
1,74.78,44.29,26.67,24.85,6.90,4.00,4.00,6.47,10.27,43.33,3.50,14.80,37.95,0.00,71.67,7.80,0.00,0.00,0.00,0.00,26.64,10.00,0.00,5.09,40.71,20.00,40.00,13.04,23.51,16.67,0.00,9.51
1,75.97,45.71,26.67,24.81,5.24,3.00,2.50,4.65,10.27,43.33,3.50,14.80,38.09,0.00,71.67,7.75,0.00,0.00,0.00,0.00,27.38,10.00,0.00,5.28,41.20,20.00,42.22,13.06,24.40,16.67,0.00,9.73
1,80.30,48.57,30.00,27.39,2.86,1.50,1.00,1.91,10.28,43.33,3.50,14.80,37.76,0.00,73.33,7.65,0.00,0.00,0.00,0.00,28.18,10.00,0.00,5.51,43.97,20.00,48.89,13.88,25.45,16.67,0.00,10.87
1,81.65,50.00,30.00,27.80,2.56,1.50,1.00,1.66,10.28,43.33,3.50,14.80,38.67,0.00,80.00,7.78,0.00,0.00,0.00,0.00,29.29,10.00,0.00,5.77,45.83,20.00,55.56,14.29,26.07,16.67,0.00,11.01
1,82.84,51.43,30.00,28.02,2.55,1.50,1.00,1.66,10.27,43.33,3.50,14.80,38.46,0.00,76.67,7.89,0.00,0.00,0.00,0.00,30.03,10.00,0.00,6.04,47.86,22.22,64.44,15.28,27.72,16.67,0.00,11.70
1,85.81,54.29,30.00,29.60,2.57,1.50,1.00,1.66,10.27,43.33,3.50,14.80,38.37,0.00,73.33,7.86,0.00,0.00,0.00,0.00,30.49,10.00,0.00,6.07,49.81,22.22,66.67,15.86,29.47,20.00,0.00,13.51
1,87.60,57.14,30.00,30.29,2.57,1.50,1.00,1.66,10.27,43.33,3.50,14.80,39.43,0.00,76.67,8.13,0.00,0.00,0.00,0.00,30.96,10.00,0.00,6.10,52.84,22.22,71.11,17.68,30.98,23.33,0.00,14.72
1,88.33,60.00,30.00,31.01,2.57,1.50,1.00,1.66,10.28,43.33,3.50,14.80,38.53,0.00,73.33,7.79,0.00,0.00,0.00,0.00,31.87,10.00,0.00,6.12,54.37,22.22,77.78,17.93,31.48,23.33,0.00,14.99
1,89.95,62.86,33.33,31.74,2.56,1.50,1.00,1.66,10.28,43.33,3.50,14.80,38.90,0.00,75.00,7.90,0.00,0.00,0.00,0.00,33.30,10.00,0.00,6.44,58.52,26.67,84.44,20.02,34.62,30.00,8.33,17.83
1,92.56,65.71,33.33,33.10,2.56,1.50,1.00,1.66,8.79,36.67,2.50,12.18,39.36,0.00,76.67,8.09,0.00,0.00,0.00,0.00,33.48,10.00,0.00,6.52,58.75,26.67,84.44,20.05,35.16,33.33,8.33,18.26
1,95.95,70.00,33.33,34.63,2.62,1.50,1.00,1.66,6.38,26.67,1.50,7.99,39.47,0.00,78.33,8.14,0.00,0.00,0.00,0.00,34.65,10.00,0.00,6.85,59.78,26.67,86.67,20.23,35.56,33.33,8.33,18.24
1,98.95,72.86,36.67,36.90,3.53,2.00,1.50,1.82,5.31,20.00,1.50,6.75,40.07,0.00,80.00,8.41,0.00,0.00,0.00,0.00,35.17,10.00,0.00,6.92,61.13,26.67,91.11,20.63,36.08,33.33,8.33,18.45
1,98.08,72.86,36.67,36.57,6.40,3.50,3.50,4.92,5.10,20.00,1.50,6.65,39.72,0.00,78.33,8.16,0.00,0.00,0.00,0.00,35.95,10.00,0.00,7.02,63.46,26.67,97.78,21.22,37.25,33.33,8.33,19.05
1,101.44,75.71,43.33,38.69,8.52,4.50,5.50,8.47,5.09,20.00,1.50,6.65,39.94,0.00,80.00,8.14,0.00,0.00,0.00,0.00,37.45,10.00,0.00,7.43,64.73,26.67,106.67,21.52,37.91,33.33,8.33,19.28
1,99.11,72.86,43.33,37.72,7.98,4.50,4.50,7.94,5.07,20.00,1.50,6.65,40.56,0.00,81.67,8.43,0.00,0.00,0.00,0.00,37.24,10.00,0.00,7.33,64.66,26.67,106.67,21.41,37.76,33.33,8.33,19.34
1,100.13,74.29,40.00,38.15,7.26,3.50,4.50,7.48,5.07,20.00,1.50,6.65,40.93,0.00,83.33,8.66,0.00,0.00,0.00,0.00,37.16,10.00,0.00,7.19,64.23,26.67,104.44,21.01,37.47,33.33,8.33,18.78
1,97.44,71.43,30.00,37.03,7.21,3.50,4.50,7.47,4.89,20.00,1.50,6.65,38.66,0.00,78.33,7.80,0.00,0.00,0.00,0.00,34.28,3.33,0.00,5.69,64.55,28.89,102.22,20.80,37.85,33.33,8.33,18.81
1,95.12,68.57,33.33,35.42,7.21,3.50,4.50,7.47,3.19,10.00,1.00,5.27,37.65,0.00,78.33,7.44,0.00,0.00,0.00,0.00,32.60,3.33,0.00,4.94,64.93,31.11,106.67,21.58,36.59,30.00,8.33,17.93
1,93.80,67.14,26.67,35.05,7.21,3.50,4.50,7.47,1.13,3.33,0.00,0.94,35.66,0.00,70.00,6.71,0.00,0.00,0.00,0.00,33.64,6.67,0.00,5.42,62.25,26.67,106.67,19.54,35.02,23.33,8.33,15.27
1,91.19,62.86,26.67,33.26,7.19,3.50,4.50,7.47,0.86,0.00,0.00,0.01,34.09,0.00,65.00,6.17,0.00,0.00,0.00,0.00,33.82,6.67,0.00,5.47,57.26,17.78,100.00,15.51,33.73,23.33,8.33,14.71
1,93.21,62.86,33.33,35.33,7.19,3.50,4.50,7.47,3.34,10.00,1.50,4.03,32.47,0.00,61.67,5.69,0.00,0.00,0.00,0.00,31.92,3.33,0.00,5.05,53.47,11.11,91.11,14.04,34.26,23.33,8.33,15.12
1,95.43,67.14,33.33,35.51,7.20,3.50,4.50,7.47,4.31,16.67,1.50,5.70,31.23,0.00,56.67,5.28,0.00,0.00,0.00,0.00,30.36,3.33,0.00,4.71,53.39,11.11,88.89,13.39,33.89,23.33,8.33,15.06
1,94.86,65.71,36.67,35.49,7.19,3.50,4.50,7.47,4.53,16.67,1.50,5.81,31.10,0.00,55.00,5.25,0.00,0.00,0.00,0.00,30.25,3.33,0.00,4.49,53.41,11.11,84.44,13.68,33.75,20.00,8.33,14.78
1,93.37,65.71,33.33,33.39,9.21,4.50,5.50,9.74,4.53,16.67,1.50,5.81,31.25,0.00,55.00,5.44,0.00,0.00,0.00,0.00,30.01,3.33,0.00,4.26,52.73,11.11,82.22,13.60,32.47,20.00,8.33,14.06
1,94.62,68.57,36.67,33.86,10.78,5.50,7.00,11.24,4.53,16.67,1.50,5.81,31.16,0.00,50.00,5.53,0.00,0.00,0.00,0.00,29.33,3.33,0.00,4.01,51.24,11.11,75.56,13.01,32.72,20.00,8.33,14.18
1,98.90,70.00,43.33,37.69,11.25,6.00,7.50,11.43,4.53,16.67,1.50,5.81,30.18,0.00,51.67,5.28,0.00,0.00,0.00,0.00,30.37,3.33,0.00,4.17,49.85,8.89,68.89,12.58,32.08,23.33,8.33,13.94
1,97.56,70.00,46.67,37.24,11.24,6.00,7.50,11.43,5.57,26.67,1.50,6.74,29.79,0.00,50.00,5.27,0.00,0.00,0.00,0.00,30.06,3.33,0.00,4.11,48.65,8.89,71.11,11.85,31.28,20.00,8.33,13.33
1,94.86,68.57,46.67,35.67,11.24,6.00,7.50,11.43,7.64,33.33,2.50,10.37,29.84,0.00,48.33,5.22,0.00,0.00,0.00,0.00,30.00,3.33,0.00,4.12,46.57,8.89,66.67,10.76,31.63,23.33,8.33,12.54
1,96.07,67.14,46.67,36.50,11.24,6.00,7.50,11.43,7.78,33.33,2.50,10.42,28.94,0.00,46.67,5.03,0.00,0.00,0.00,0.00,30.47,3.33,0.00,4.40,45.58,8.89,62.22,10.30,32.19,23.33,8.33,12.44
1,94.42,65.71,43.33,36.00,11.24,6.00,7.50,11.43,7.78,33.33,2.50,10.42,30.11,0.00,50.00,5.26,0.00,0.00,0.00,0.00,30.54,3.33,0.00,4.32,42.68,4.44,57.78,9.17,29.64,16.67,0.00,10.44
1,94.16,64.29,43.33,34.99,11.24,6.00,7.50,11.43,7.77,33.33,2.50,10.42,29.57,0.00,50.00,5.18,0.00,0.00,0.00,0.00,30.14,3.33,0.00,4.27,42.61,4.44,62.22,8.29,28.39,13.33,0.00,9.36
1,93.91,62.86,43.33,34.17,11.18,6.00,7.50,11.42,7.77,33.33,2.50,10.42,28.88,0.00,45.00,5.02,0.00,0.00,0.00,0.00,29.82,3.33,0.00,4.24,42.42,4.44,60.00,8.26,28.83,13.33,0.00,9.64
1,92.10,62.86,40.00,33.00,10.69,5.50,7.00,11.28,7.77,33.33,2.50,10.42,28.52,0.00,43.33,4.90,0.00,0.00,0.00,0.00,30.95,3.33,0.00,4.38,41.81,4.44,55.56,7.92,28.04,13.33,0.00,9.37
1,92.59,61.43,40.00,33.20,8.64,4.50,5.50,8.95,7.77,33.33,2.50,10.42,28.79,0.00,45.00,5.01,0.00,0.00,0.00,0.00,30.39,3.33,0.00,4.31,40.09,4.44,48.89,7.64,28.23,13.33,0.00,9.22
1,94.62,62.86,40.00,35.92,6.28,3.50,3.50,6.46,7.77,33.33,2.50,10.42,28.51,0.00,46.67,4.96,0.00,0.00,0.00,0.00,30.34,3.33,0.00,4.46,38.46,4.44,40.00,7.34,28.47,13.33,0.00,9.30
1,94.22,62.86,40.00,34.96,4.51,2.50,3.00,3.98,7.76,33.33,2.50,10.42,27.80,0.00,43.33,4.60,0.00,0.00,0.00,0.00,29.78,3.33,0.00,4.28,39.04,4.44,40.00,7.58,28.22,13.33,0.00,9.14
1,96.58,64.29,40.00,36.45,4.48,2.50,3.00,3.97,7.77,33.33,2.50,10.42,26.79,0.00,43.33,4.30,0.00,0.00,0.00,0.00,29.65,3.33,0.00,4.21,39.28,4.44,40.00,7.79,27.77,13.33,0.00,8.86
1,99.33,64.29,46.67,38.35,4.48,2.50,3.00,3.97,7.77,33.33,2.50,10.42,26.68,0.00,41.67,4.26,0.00,0.00,0.00,0.00,30.44,3.33,0.00,4.31,38.03,2.22,35.56,7.39,27.39,16.67,0.00,8.71
1,99.36,64.29,43.33,38.80,4.47,2.50,3.00,3.97,7.78,33.33,2.50,10.42,26.65,0.00,43.33,4.19,0.00,0.00,0.00,0.00,30.98,3.33,0.00,4.35,35.36,0.00,31.11,6.14,27.64,16.67,0.00,8.84
1,97.27,61.43,40.00,37.72,4.47,2.50,3.00,3.97,7.78,33.33,2.50,10.42,27.47,0.00,48.33,4.45,0.00,0.00,0.00,0.00,30.56,3.33,0.00,4.24,34.39,0.00,26.67,6.05,26.73,13.33,0.00,8.33
1,97.54,62.86,40.00,36.96,4.46,2.50,3.00,3.97,7.78,33.33,2.50,10.42,26.71,0.00,48.33,4.24,0.00,0.00,0.00,0.00,29.03,0.00,0.00,3.71,33.97,0.00,26.67,5.85,26.65,13.33,0.00,8.04
1,96.58,62.86,36.67,35.93,5.11,3.00,3.50,4.17,5.74,26.67,1.50,6.99,27.57,0.00,53.33,4.34,0.00,0.00,0.00,0.00,28.50,0.00,0.00,3.62,34.38,0.00,28.89,5.99,26.43,13.33,0.00,7.90
1,94.13,61.43,36.67,32.95,6.74,4.00,5.50,5.91,4.25,20.00,1.00,4.99,28.17,0.00,55.00,4.57,0.00,0.00,0.00,0.00,28.80,0.00,0.00,3.66,34.54,0.00,33.33,6.08,25.99,13.33,0.00,7.43
1,92.40,60.00,33.33,32.78,9.10,5.50,7.00,8.58,3.69,16.67,1.00,4.62,28.19,0.00,55.00,4.57,0.00,0.00,0.00,0.00,28.19,0.00,0.00,3.53,32.88,0.00,35.56,5.41,25.67,13.33,0.00,7.21
1,91.88,60.00,33.33,32.70,7.51,4.50,6.00,6.76,3.69,16.67,1.00,4.62,28.42,0.00,56.67,4.57,0.00,0.00,0.00,0.00,28.11,0.00,0.00,3.65,32.09,0.00,35.56,5.07,24.94,13.33,0.00,6.95
1,88.92,57.14,30.00,31.44,5.91,3.50,4.50,5.15,3.69,16.67,1.00,4.62,28.73,0.00,61.67,4.52,0.00,0.00,0.00,0.00,28.11,0.00,0.00,3.66,32.01,0.00,33.33,5.06,24.79,13.33,0.00,6.80
1,88.09,57.14,26.67,29.80,5.35,3.00,4.00,4.86,3.69,16.67,1.00,4.62,28.67,0.00,61.67,4.43,0.00,0.00,0.00,0.00,26.37,0.00,0.00,3.29,31.83,0.00,35.56,5.28,24.24,13.33,0.00,6.72
1,84.90,54.29,23.33,28.63,5.31,3.00,4.00,4.86,2.88,10.00,1.00,3.86,29.60,0.00,63.33,4.55,0.00,0.00,0.00,0.00,26.49,0.00,0.00,3.26,30.56,0.00,31.11,5.02,23.56,10.00,0.00,6.06
1,87.44,55.71,26.67,30.04,5.32,3.00,4.00,4.86,0.73,0.00,0.00,0.37,29.53,0.00,61.67,4.71,0.00,0.00,0.00,0.00,26.10,0.00,0.00,3.22,30.76,0.00,31.11,5.01,22.77,3.33,0.00,5.28
1,88.31,58.57,33.33,30.27,5.33,3.00,4.00,4.86,0.62,0.00,0.00,0.03,30.54,0.00,68.33,4.87,0.00,0.00,0.00,0.00,25.91,0.00,0.00,3.22,31.23,0.00,33.33,5.01,21.99,3.33,0.00,5.11
1,87.61,55.71,33.33,29.50,5.33,3.00,4.00,4.86,2.21,3.33,1.00,2.73,30.10,0.00,70.00,4.67,0.00,0.00,0.00,0.00,24.45,0.00,0.00,3.03,30.32,0.00,28.89,4.73,21.57,3.33,0.00,4.74
1,86.09,52.86,33.33,29.44,5.33,3.00,4.00,4.86,4.12,13.33,1.50,5.39,30.26,0.00,70.00,4.67,0.00,0.00,0.00,0.00,23.96,0.00,0.00,2.89,30.00,0.00,24.44,4.72,21.19,3.33,0.00,4.56
1,86.81,54.29,33.33,29.57,5.33,3.00,4.00,4.86,4.42,13.33,1.50,5.62,30.33,0.00,70.00,4.59,0.00,0.00,0.00,0.00,24.60,0.00,0.00,3.00,29.72,0.00,24.44,4.67,21.01,3.33,0.00,4.42
1,84.10,50.00,33.33,28.18,5.34,3.00,4.00,4.86,4.43,13.33,1.50,5.62,30.72,0.00,70.00,4.75,0.00,0.00,0.00,0.00,23.34,0.00,0.00,2.70,29.20,0.00,24.44,4.82,21.04,3.33,0.00,4.48
1,84.55,52.86,33.33,28.70,6.62,3.50,4.50,5.63,4.43,13.33,1.50,5.62,30.97,0.00,68.33,4.71,0.00,0.00,0.00,0.00,22.67,0.00,0.00,2.60,28.96,0.00,24.44,4.75,20.87,3.33,0.00,4.41
1,82.08,50.00,30.00,26.72,7.82,4.50,6.00,7.38,4.42,13.33,1.50,5.62,31.29,0.00,70.00,4.97,0.00,0.00,0.00,0.00,22.86,0.00,0.00,2.56,29.06,0.00,26.67,4.62,19.88,3.33,0.00,4.03
1,83.10,50.00,30.00,27.38,8.09,5.00,6.00,7.47,4.42,13.33,1.50,5.62,32.27,0.00,71.67,5.37,0.00,0.00,0.00,0.00,22.48,0.00,0.00,2.43,28.95,0.00,28.89,4.53,19.80,3.33,0.00,3.97
1,80.15,45.71,30.00,26.07,8.08,5.00,6.00,7.47,5.98,20.00,2.00,7.13,32.42,0.00,71.67,5.42,0.00,0.00,0.00,0.00,22.26,0.00,0.00,2.44,28.89,0.00,31.11,4.34,20.11,3.33,0.00,4.17
1,77.89,44.29,23.33,24.11,8.08,5.00,6.00,7.47,8.32,30.00,3.00,9.86,32.97,0.00,76.67,5.47,0.00,0.00,0.00,0.00,20.90,0.00,0.00,2.23,28.94,0.00,31.11,4.24,19.52,0.00,0.00,3.97
1,78.51,44.29,26.67,24.59,8.09,5.00,6.00,7.47,9.19,33.33,3.50,12.32,33.56,0.00,75.00,5.71,0.00,0.00,0.00,0.00,20.05,0.00,0.00,2.17,29.09,0.00,31.11,4.40,18.94,0.00,0.00,3.76
1,78.21,44.29,26.67,24.17,8.09,5.00,6.00,7.47,9.22,33.33,3.50,12.32,33.05,0.00,71.67,5.69,0.00,0.00,0.00,0.00,19.79,0.00,0.00,2.22,29.23,0.00,31.11,4.41,19.27,0.00,0.00,3.95
1,78.81,45.71,30.00,25.04,8.08,5.00,6.00,7.47,9.22,33.33,3.50,12.32,32.88,0.00,68.33,5.71,0.00,0.00,0.00,0.00,20.38,0.00,0.00,2.32,28.79,0.00,31.11,4.35,18.80,0.00,0.00,3.89
