0,44.89,12.86,0.00,8.81,7.80,4.00,5.00,7.77,6.49,26.67,2.00,8.18,30.00,0.00,51.67,5.11,3.98,0.00,0.00,1.20,12.19,0.00,0.00,0.56,19.74,0.00,2.22,1.64,13.91,0.00,0.00,2.30
0,44.69,14.29,0.00,8.63,7.79,4.00,5.00,7.77,6.48,26.67,2.00,8.18,30.40,0.00,53.33,5.20,3.91,0.00,0.00,1.16,11.79,0.00,0.00,0.55,19.28,0.00,2.22,1.70,13.75,0.00,0.00,2.20
0,44.57,14.29,0.00,8.24,7.79,4.00,5.00,7.77,6.48,26.67,2.00,8.18,29.79,0.00,53.33,4.90,3.81,0.00,0.00,1.13,11.70,0.00,0.00,0.54,19.80,0.00,2.22,1.79,13.61,0.00,0.00,2.08
0,45.62,12.86,0.00,8.71,7.79,4.00,5.00,7.77,6.49,26.67,2.00,8.18,30.44,0.00,55.00,4.98,3.88,0.00,0.00,1.13,11.88,0.00,0.00,0.55,20.13,0.00,2.22,1.84,13.54,0.00,0.00,2.07
0,47.53,14.29,3.33,10.36,7.80,4.00,5.00,7.77,4.99,23.33,1.00,5.55,30.85,0.00,56.67,5.34,4.00,0.00,0.00,1.22,11.77,0.00,0.00,0.55,20.53,0.00,2.22,1.86,13.55,0.00,0.00,1.99
0,48.16,15.71,3.33,10.57,7.81,4.00,5.00,7.77,4.09,16.67,1.00,4.52,29.73,0.00,53.33,4.97,3.97,0.00,0.00,1.22,12.32,0.00,0.00,0.57,20.50,0.00,2.22,1.84,13.29,0.00,0.00,1.87
0,49.95,17.14,3.33,11.07,7.80,4.00,5.00,7.77,4.02,16.67,1.00,4.50,28.57,0.00,50.00,4.73,3.92,0.00,0.00,1.21,12.20,0.00,0.00,0.59,20.49,0.00,2.22,1.92,13.20,0.00,0.00,1.86
0,54.07,21.43,6.67,13.15,7.80,4.00,5.00,7.77,6.07,26.67,2.00,7.93,30.13,0.00,55.00,4.98,3.90,0.00,0.00,1.20,12.41,0.00,0.00,0.63,20.13,0.00,2.22,1.96,13.28,0.00,0.00,1.86
0,54.39,21.43,6.67,13.39,7.80,4.00,5.00,7.77,8.35,33.33,3.00,11.69,30.59,0.00,56.67,5.35,4.04,0.50,0.00,1.18,12.51,0.00,0.00,0.64,20.44,0.00,2.22,2.00,12.88,0.00,0.00,1.80
0,53.30,20.00,6.67,13.50,7.79,4.00,5.00,7.77,9.35,36.67,4.00,14.02,30.98,0.00,58.33,5.47,4.34,1.00,0.00,2.32,12.74,0.00,0.00,0.69,20.19,0.00,2.22,2.04,13.41,0.00,0.00,1.93
0,53.47,20.00,6.67,13.41,7.80,4.00,5.00,7.77,8.50,30.00,4.00,13.35,30.35,0.00,58.33,5.34,4.20,1.00,0.00,2.29,12.85,0.00,0.00,0.69,20.46,0.00,2.22,2.15,12.56,0.00,0.00,1.69
0,53.16,20.00,6.67,13.67,7.81,4.00,5.00,7.77,6.39,23.33,3.00,9.76,31.06,0.00,60.00,5.49,4.84,1.50,2.50,4.44,13.01,0.00,0.00,0.70,20.25,0.00,2.22,2.10,12.17,0.00,0.00,1.52
0,53.45,20.00,6.67,13.70,7.81,4.00,5.00,7.77,6.33,23.33,3.00,9.75,31.15,0.00,60.00,5.53,4.81,1.50,2.50,4.46,13.11,0.00,0.00,0.72,19.78,0.00,2.22,2.05,11.78,0.00,0.00,1.43
0,55.40,21.43,6.67,14.33,5.66,3.00,3.00,5.47,7.60,26.67,3.50,11.67,31.05,0.00,58.33,5.54,4.90,1.50,2.50,4.48,13.25,0.00,0.00,0.76,19.48,0.00,2.22,2.04,11.86,0.00,0.00,1.41
0,57.46,24.29,6.67,15.17,4.66,2.00,2.50,4.80,9.93,36.67,4.50,15.61,31.06,0.00,56.67,5.72,4.87,1.50,2.50,4.47,13.53,0.00,0.00,0.79,19.52,0.00,0.00,2.11,11.67,0.00,0.00,1.35
0,58.22,24.29,6.67,15.48,4.21,1.50,2.50,4.40,10.21,36.67,4.50,15.97,30.54,0.00,55.00,5.55,4.96,1.50,2.50,4.49,13.58,0.00,0.00,0.80,20.31,0.00,0.00,2.20,11.79,0.00,0.00,1.42
0,58.99,27.14,6.67,16.38,3.90,2.00,2.50,3.45,10.22,36.67,4.50,15.97,30.82,0.00,56.67,5.69,4.99,1.50,2.50,4.54,13.94,0.00,0.00,0.84,20.34,0.00,0.00,2.24,11.71,0.00,0.00,1.39
0,59.17,27.14,6.67,16.37,3.97,2.00,2.50,3.54,10.21,36.67,4.50,15.97,30.09,0.00,53.33,5.57,4.90,1.50,2.50,4.50,13.80,0.00,0.00,0.84,20.13,0.00,0.00,2.19,12.00,0.00,0.00,1.50
0,60.69,28.57,6.67,16.86,5.28,3.00,3.00,4.35,10.21,36.67,4.50,15.97,29.57,0.00,53.33,5.35,5.03,1.50,2.50,4.57,14.07,0.00,0.00,0.85,19.81,0.00,0.00,2.14,12.54,0.00,0.00,1.63
0,61.53,31.43,6.67,17.23,6.10,3.50,3.50,5.85,10.21,36.67,4.50,15.97,29.94,0.00,56.67,5.35,5.16,1.50,2.50,4.64,14.13,0.00,0.00,0.86,19.86,0.00,0.00,2.15,13.11,0.00,0.00,1.69
0,63.45,35.71,6.67,17.73,6.14,3.50,3.50,5.85,10.20,36.67,4.50,15.97,30.10,0.00,55.00,5.27,5.11,1.50,2.50,4.62,14.66,0.00,0.00,0.95,19.55,0.00,0.00,2.10,13.26,0.00,0.00,1.78
0,65.80,37.14,6.67,18.65,6.14,3.50,3.50,5.85,10.19,36.67,4.50,15.97,30.94,0.00,58.33,5.65,5.18,1.50,2.50,4.64,14.92,0.00,0.00,0.97,20.50,0.00,0.00,2.27,13.43,0.00,0.00,1.82
0,66.04,35.71,6.67,18.69,6.14,3.50,3.50,5.85,10.19,36.67,4.50,15.97,31.30,0.00,58.33,5.74,5.25,1.50,2.50,4.72,15.18,0.00,0.00,0.98,20.48,0.00,0.00,2.18,13.75,0.00,0.00,1.90
0,66.78,35.71,6.67,19.01,6.14,3.50,3.50,5.85,10.19,36.67,4.50,15.97,32.06,0.00,58.33,6.08,5.35,1.50,2.50,4.73,15.50,0.00,0.00,1.05,20.30,0.00,0.00,2.12,13.20,0.00,0.00,1.81
0,65.06,34.29,6.67,18.52,6.13,3.50,3.50,5.85,10.20,36.67,4.50,15.97,32.64,0.00,63.33,6.17,5.48,1.50,2.50,4.77,16.29,0.00,0.00,1.13,20.33,0.00,2.22,2.12,14.20,0.00,0.00,2.17
0,62.04,31.43,3.33,16.25,6.13,3.50,3.50,5.85,10.20,36.67,4.50,15.97,32.83,0.00,65.00,6.00,5.31,1.50,2.50,4.65,16.64,0.00,0.00,1.17,19.96,0.00,2.22,2.08,14.07,0.00,0.00,2.24
0,62.94,32.86,3.33,16.49,6.12,3.50,3.50,5.85,10.20,36.67,4.50,15.97,33.52,0.00,68.33,6.13,5.27,1.50,2.50,4.59,16.51,0.00,0.00,1.16,19.85,0.00,2.22,2.07,14.00,0.00,0.00,2.18
0,63.12,32.86,3.33,16.64,6.12,3.50,3.50,5.85,10.19,36.67,4.50,15.97,34.29,0.00,70.00,6.31,5.22,1.50,2.50,4.58,16.19,0.00,0.00,1.10,20.04,0.00,2.22,2.06,14.29,0.00,0.00,2.24
0,63.14,32.86,3.33,16.34,6.13,3.50,3.50,5.85,8.28,26.67,3.50,12.86,34.38,0.00,68.33,6.31,5.29,1.50,2.50,4.62,16.63,0.00,0.00,1.14,20.19,0.00,2.22,2.01,14.70,0.00,0.00,2.34
0,61.69,32.86,0.00,15.84,6.13,3.50,3.50,5.85,6.21,20.00,2.50,9.04,34.05,0.00,70.00,6.22,5.29,1.50,2.50,4.63,16.78,0.00,0.00,1.19,20.57,0.00,2.22,2.14,14.54,0.00,0.00,2.30
0,62.74,35.71,0.00,15.45,6.14,3.50,3.50,5.85,4.46,13.33,1.50,6.27,34.17,0.00,71.67,6.21,4.63,0.50,2.50,3.40,16.37,0.00,0.00,1.15,20.55,0.00,2.22,2.11,14.65,0.00,0.00,2.33
0,64.92,37.14,3.33,17.00,6.14,3.50,3.50,5.85,4.81,13.33,1.50,6.24,33.97,0.00,68.33,6.07,4.73,0.50,2.50,3.41,16.43,0.00,0.00,1.15,20.52,0.00,2.22,2.04,14.70,0.00,0.00,2.33
0,64.31,35.71,3.33,16.35,6.13,3.50,3.50,5.85,7.01,23.33,2.50,9.96,33.57,0.00,70.00,5.93,4.12,0.00,0.00,2.11,16.44,0.00,0.00,1.15,20.70,0.00,2.22,2.05,14.56,0.00,0.00,2.33
0,68.47,40.00,3.33,20.04,6.13,3.50,3.50,5.85,7.45,26.67,2.50,10.66,34.07,0.00,75.00,5.93,3.95,0.00,0.00,1.14,16.25,0.00,0.00,1.14,21.01,0.00,2.22,2.09,14.55,0.00,0.00,2.29
0,69.91,41.43,3.33,21.21,6.13,3.50,3.50,5.85,7.10,26.67,2.00,10.66,34.02,0.00,78.33,5.86,3.91,0.00,0.00,1.15,16.09,0.00,0.00,1.09,21.70,0.00,2.22,2.16,14.82,0.00,0.00,2.33
0,70.63,44.29,3.33,21.35,6.14,3.50,3.50,5.85,4.46,16.67,1.00,6.96,33.21,0.00,75.00,5.55,3.91,0.00,0.00,1.16,15.92,0.00,0.00,1.07,21.81,0.00,2.22,2.23,15.24,0.00,0.00,2.46
0,71.62,44.29,3.33,22.58,5.73,3.50,3.00,5.85,4.22,16.67,1.00,4.90,33.34,0.00,76.67,5.61,3.95,0.00,0.00,1.25,16.15,0.00,0.00,1.12,21.75,0.00,2.22,2.27,15.13,0.00,0.00,2.46
0,71.54,42.86,3.33,22.19,3.29,2.00,1.00,3.20,6.29,26.67,2.00,8.28,32.13,0.00,70.00,5.44,3.95,0.00,0.00,1.23,16.22,0.00,0.00,1.13,21.97,0.00,2.22,2.33,15.40,0.00,0.00,2.46
0,71.83,44.29,3.33,22.44,2.66,1.50,1.00,2.32,6.57,26.67,2.00,8.64,33.05,0.00,76.67,5.52,4.07,0.00,0.00,1.29,16.40,0.00,0.00,1.16,22.13,0.00,2.22,2.32,15.15,0.00,0.00,2.52
0,72.78,47.14,3.33,23.29,4.53,2.50,2.00,4.39,6.58,26.67,2.00,8.64,33.72,0.00,81.67,5.67,3.97,0.00,0.00,1.24,16.40,0.00,0.00,1.15,21.97,0.00,2.22,2.32,14.46,0.00,0.00,2.39
0,72.66,47.14,3.33,23.69,2.79,1.00,1.00,2.36,6.58,26.67,2.00,8.64,33.33,0.00,78.33,5.62,3.80,0.00,0.00,1.17,16.56,0.00,0.00,1.17,22.43,0.00,2.22,2.33,13.89,0.00,0.00,2.30
0,71.20,44.29,3.33,23.20,3.27,2.00,1.50,2.48,6.58,26.67,2.00,8.64,33.75,0.00,78.33,5.98,3.79,0.00,0.00,1.16,16.39,0.00,0.00,1.15,23.21,0.00,4.44,2.48,14.18,0.00,0.00,2.29
0,71.37,42.86,3.33,23.06,5.02,3.00,3.50,4.50,6.59,26.67,2.00,8.64,32.37,0.00,75.00,5.51,3.90,0.00,0.00,1.23,16.52,0.00,0.00,1.14,22.72,0.00,4.44,2.46,14.40,0.00,0.00,2.30
0,72.42,45.71,3.33,23.89,5.71,3.50,3.50,5.11,6.60,26.67,2.00,8.64,32.16,0.00,73.33,5.37,3.81,0.00,0.00,1.16,16.62,0.00,0.00,1.16,22.74,0.00,4.44,2.51,14.03,0.00,0.00,2.21
0,72.51,45.71,3.33,23.92,5.73,3.50,3.50,5.11,6.60,26.67,2.00,8.64,31.42,0.00,75.00,5.00,3.78,0.00,0.00,1.22,16.78,0.00,0.00,1.15,22.37,0.00,4.44,2.50,14.04,0.00,0.00,2.21
0,73.29,47.14,3.33,24.42,5.73,3.50,3.50,5.11,6.60,26.67,2.00,8.64,31.62,0.00,71.67,5.20,3.71,0.00,0.00,1.19,16.34,0.00,0.00,1.09,22.23,0.00,2.22,2.45,13.20,0.00,0.00,2.08
0,76.05,50.00,6.67,26.61,5.73,3.50,3.50,5.11,6.59,26.67,2.00,8.64,30.88,0.00,68.33,4.97,3.76,0.00,0.00,1.22,16.25,0.00,0.00,1.07,22.36,0.00,2.22,2.48,13.01,0.00,0.00,1.79
0,76.75,51.43,6.67,27.60,5.73,3.50,3.50,5.11,6.59,26.67,2.00,8.64,30.99,0.00,68.33,4.94,3.69,0.00,0.00,1.21,16.64,0.00,0.00,1.10,22.61,0.00,2.22,2.52,13.31,0.00,0.00,1.79
0,77.54,54.29,10.00,28.08,5.72,3.50,3.50,5.11,6.59,26.67,2.00,8.64,31.46,0.00,70.00,5.02,3.75,0.00,0.00,1.24,16.81,0.00,0.00,1.11,22.32,0.00,2.22,2.48,13.12,0.00,0.00,1.81
0,75.25,51.43,10.00,27.04,5.72,3.50,3.50,5.11,6.59,26.67,2.00,8.64,31.03,0.00,68.33,4.97,3.74,0.00,0.00,1.25,16.66,0.00,0.00,1.12,22.24,0.00,2.22,2.50,13.27,0.00,0.00,1.89
0,75.93,50.00,10.00,26.99,5.72,3.50,3.50,5.11,6.60,26.67,2.00,8.64,30.51,0.00,66.67,4.88,3.66,0.00,0.00,1.23,16.55,0.00,0.00,1.09,22.06,0.00,2.22,2.38,13.77,0.00,0.00,1.96
0,74.93,47.14,10.00,26.61,5.72,3.50,3.50,5.11,6.59,26.67,2.00,8.64,30.38,0.00,66.67,4.84,3.74,0.00,0.00,1.29,16.72,0.00,0.00,1.11,21.76,0.00,2.22,2.31,13.91,0.00,0.00,2.03
0,71.95,44.29,6.67,24.90,5.72,3.50,3.50,5.11,6.55,26.67,2.00,8.64,29.66,0.00,61.67,4.73,3.79,0.00,0.00,1.33,16.74,0.00,0.00,1.12,21.90,0.00,2.22,2.27,13.88,0.00,0.00,2.08
0,74.48,47.14,6.67,26.42,5.72,3.50,3.50,5.11,4.50,20.00,1.00,5.19,28.84,0.00,60.00,4.51,3.83,0.00,0.00,1.33,15.99,0.00,0.00,1.09,22.02,0.00,2.22,2.37,13.88,0.00,0.00,1.99
0,72.03,42.86,6.67,23.84,5.72,3.50,3.50,5.11,3.49,13.33,1.00,4.22,28.27,0.00,53.33,4.42,3.76,0.00,0.00,1.30,16.15,0.00,0.00,1.09,22.03,0.00,2.22,2.38,13.90,0.00,0.00,2.04
0,71.12,41.43,6.67,22.96,5.72,3.50,3.50,5.11,4.34,20.00,1.50,4.75,28.35,0.00,53.33,4.44,3.81,0.00,0.00,1.30,16.25,0.00,0.00,1.12,21.87,0.00,2.22,2.30,14.00,0.00,0.00,2.07
0,70.79,40.00,6.67,23.29,5.71,3.50,3.50,5.11,5.20,26.67,1.50,6.00,29.34,0.00,53.33,4.93,3.89,0.00,0.00,1.38,15.99,0.00,0.00,1.09,21.50,0.00,2.22,2.10,13.77,0.00,0.00,2.00
0,68.83,37.14,6.67,22.29,5.71,3.50,3.50,5.11,5.22,26.67,1.50,6.09,29.29,0.00,53.33,4.94,3.82,0.00,0.00,1.28,16.34,0.00,0.00,1.11,21.30,0.00,2.22,2.05,13.41,0.00,0.00,1.92
0,71.25,41.43,10.00,23.28,5.71,3.50,3.50,5.11,3.27,16.67,0.50,4.28,29.37,0.00,53.33,4.87,3.75,0.00,0.00,1.24,16.46,0.00,0.00,1.08,21.32,0.00,2.22,2.07,13.71,0.00,0.00,2.02
0,71.89,41.43,10.00,23.51,5.71,3.50,3.50,5.11,2.42,13.33,0.50,1.89,29.42,0.00,51.67,4.80,3.83,0.00,0.00,1.24,15.97,0.00,0.00,1.04,20.07,0.00,2.22,1.90,13.42,0.00,0.00,1.99
0,73.20,41.43,10.00,23.99,4.42,3.00,2.50,4.32,2.94,16.67,0.50,2.15,29.15,0.00,50.00,4.73,3.84,0.00,0.00,1.22,15.93,0.00,0.00,1.05,19.97,0.00,2.22,1.89,13.50,0.00,0.00,2.00
0,74.46,40.00,10.00,24.36,3.52,2.50,2.50,2.78,4.91,23.33,1.50,5.49,29.00,0.00,50.00,4.73,3.76,0.00,0.00,1.19,16.28,0.00,0.00,1.10,20.00,0.00,2.22,1.97,14.15,0.00,0.00,2.19
0,77.00,44.29,13.33,25.29,3.44,2.50,2.50,2.76,7.03,30.00,2.50,9.43,28.46,0.00,48.33,4.56,3.82,0.00,0.00,1.21,16.42,0.00,0.00,1.08,19.33,0.00,0.00,1.87,13.82,0.00,0.00,2.12
0,75.72,42.86,13.33,24.68,4.18,2.00,1.50,4.54,7.16,30.00,2.50,9.48,29.12,0.00,50.00,4.68,3.78,0.00,0.00,1.15,16.10,0.00,0.00,1.08,19.35,0.00,0.00,1.82,13.75,0.00,0.00,2.13
0,74.49,41.43,13.33,23.54,3.41,2.00,2.00,2.86,7.15,30.00,2.50,9.48,28.43,0.00,48.33,4.60,3.84,0.00,0.00,1.16,15.80,0.00,0.00,1.06,19.11,0.00,0.00,1.74,14.04,0.00,0.00,2.31
0,76.20,44.29,16.67,25.58,3.61,2.00,2.00,2.89,7.15,30.00,2.50,9.48,28.58,0.00,48.33,4.61,3.85,0.00,0.00,1.15,15.86,0.00,0.00,1.10,19.20,0.00,0.00,1.70,14.14,0.00,0.00,2.36
0,75.08,42.86,16.67,24.97,5.55,3.00,3.00,4.99,7.15,30.00,2.50,9.48,28.34,0.00,46.67,4.71,3.87,0.00,0.00,1.14,15.59,0.00,0.00,1.08,19.12,0.00,0.00,1.70,14.78,0.00,0.00,2.50
0,75.51,42.86,13.33,24.10,5.83,3.00,3.00,5.23,7.15,30.00,2.50,9.48,28.24,0.00,46.67,4.74,3.82,0.00,0.00,1.14,15.73,0.00,0.00,1.11,19.44,0.00,2.22,1.75,14.71,0.00,0.00,2.50
0,72.31,38.57,16.67,22.73,5.84,3.00,3.00,5.23,7.15,30.00,2.50,9.48,28.90,0.00,46.67,5.12,3.99,0.00,0.00,1.20,15.88,0.00,0.00,1.13,19.21,0.00,2.22,1.72,14.91,0.00,0.00,2.54
0,74.25,40.00,16.67,23.66,5.84,3.00,3.00,5.23,7.15,30.00,2.50,9.48,28.30,0.00,45.00,4.94,4.05,0.00,0.00,1.21,16.29,0.00,0.00,1.15,19.40,0.00,2.22,1.72,14.90,0.00,0.00,2.50
0,73.63,38.57,16.67,23.57,5.84,3.00,3.00,5.23,7.15,30.00,2.50,9.48,28.30,0.00,45.00,4.83,4.05,0.00,0.00,1.18,16.84,0.00,0.00,1.21,19.22,0.00,2.22,1.67,14.36,0.00,0.00,2.31
0,75.97,42.86,16.67,24.29,5.83,3.00,3.00,5.23,7.16,30.00,2.50,9.48,27.60,0.00,40.00,4.79,4.08,0.00,0.00,1.18,16.73,0.00,0.00,1.20,19.43,0.00,2.22,1.73,14.32,0.00,0.00,2.35
0,75.47,42.86,16.67,24.46,5.83,3.00,3.00,5.23,7.16,30.00,2.50,9.48,28.05,0.00,41.67,4.84,4.10,0.00,0.00,1.16,16.04,0.00,0.00,1.12,19.55,0.00,2.22,1.76,14.28,0.00,0.00,2.33
0,76.59,42.86,16.67,24.46,5.83,3.00,3.00,5.23,7.17,30.00,2.50,9.48,28.01,0.00,41.67,4.84,4.07,0.00,0.00,1.10,15.94,0.00,0.00,1.10,19.19,0.00,2.22,1.75,14.39,0.00,0.00,2.36
0,74.14,41.43,16.67,23.20,5.83,3.00,3.00,5.23,7.18,30.00,2.50,9.48,28.06,0.00,40.00,4.85,4.07,0.00,0.00,1.08,16.03,0.00,0.00,1.08,18.86,0.00,2.22,1.71,14.74,0.00,0.00,2.38
0,74.17,40.00,16.67,23.23,5.83,3.00,3.00,5.23,7.19,30.00,2.50,9.48,27.98,0.00,41.67,4.87,4.13,0.00,0.00,1.09,15.80,0.00,0.00,1.07,19.35,0.00,2.22,1.80,14.70,0.00,0.00,2.31
0,74.04,41.43,16.67,23.02,5.83,3.00,3.00,5.23,7.19,30.00,2.50,9.48,27.26,0.00,36.67,4.74,4.23,0.00,0.00,1.13,15.64,0.00,0.00,1.05,19.40,0.00,2.22,1.89,14.95,0.00,0.00,2.35
0,73.62,42.86,16.67,22.51,5.83,3.00,3.00,5.23,5.76,20.00,2.00,7.91,26.06,0.00,35.00,4.23,4.18,0.00,0.00,1.09,16.98,0.00,0.00,1.37,19.51,0.00,2.22,1.94,14.57,0.00,0.00,2.25
0,74.78,44.29,16.67,22.62,5.83,3.00,3.00,5.23,5.26,16.67,2.00,7.61,25.90,0.00,36.67,4.10,4.20,0.00,0.00,1.11,17.13,0.00,0.00,1.44,19.81,0.00,2.22,1.97,14.81,0.00,0.00,2.28
0,71.76,40.00,13.33,21.11,5.85,3.00,3.00,5.23,6.74,23.33,3.00,10.24,27.04,0.00,38.33,4.63,4.27,0.00,0.00,1.16,17.35,0.00,0.00,1.49,19.32,0.00,2.22,1.86,15.02,0.00,0.00,2.26
0,70.28,40.00,13.33,20.67,5.84,3.00,3.00,5.23,8.47,33.33,3.00,12.49,26.94,0.00,36.67,4.88,4.23,0.00,0.00,1.13,18.12,0.00,0.00,1.59,19.61,0.00,2.22,1.87,14.57,0.00,0.00,2.17
0,69.59,40.00,13.33,19.63,5.85,3.00,3.00,5.23,8.28,30.00,3.00,12.54,27.08,0.00,36.67,4.87,4.14,0.00,0.00,1.16,19.70,0.00,0.00,2.00,19.98,0.00,2.22,1.94,14.63,0.00,0.00,2.16
0,66.83,38.57,13.33,18.34,5.85,3.00,3.00,5.23,6.59,26.67,2.00,9.67,26.76,0.00,35.00,4.82,4.27,0.00,0.00,1.21,21.44,0.00,0.00,2.51,20.35,0.00,2.22,2.11,14.57,0.00,0.00,2.13
0,64.86,37.14,10.00,18.53,5.86,3.00,3.00,5.23,4.18,16.67,1.00,5.42,27.86,0.00,38.33,5.33,4.30,0.00,0.00,1.24,21.28,0.00,0.00,2.52,20.64,0.00,2.22,2.19,14.36,0.00,0.00,1.99
0,64.54,37.14,10.00,18.53,4.38,2.50,2.00,3.48,3.89,16.67,1.00,5.06,27.88,0.00,38.33,5.30,4.29,0.00,0.00,1.25,22.60,0.00,0.00,2.70,21.21,0.00,2.22,2.33,14.50,0.00,0.00,2.00
0,65.14,37.14,10.00,19.20,3.03,1.00,1.00,2.43,5.58,23.33,1.50,7.44,28.05,0.00,36.67,5.38,4.28,0.00,0.00,1.28,22.52,0.00,0.00,2.68,20.82,0.00,2.22,2.30,14.49,0.00,0.00,1.92
0,62.46,34.29,6.67,17.44,2.84,1.00,1.00,2.38,5.69,23.33,1.50,7.47,28.37,0.00,35.00,5.55,4.27,0.00,0.00,1.28,22.11,0.00,0.00,2.60,20.73,0.00,2.22,2.30,14.99,0.00,0.00,2.07
0,63.44,35.71,6.67,18.08,1.36,0.50,0.00,1.54,5.70,23.33,1.50,7.47,27.40,0.00,31.67,5.10,4.17,0.00,0.00,1.23,22.87,0.00,0.00,2.78,20.97,0.00,2.22,2.32,14.75,0.00,0.00,1.93
0,62.97,34.29,6.67,18.06,2.47,1.00,1.50,1.69,5.70,23.33,1.50,7.47,27.83,0.00,35.00,5.11,4.20,0.00,0.00,1.21,22.84,0.00,0.00,2.79,21.00,0.00,0.00,2.41,14.62,0.00,0.00,1.95
0,62.98,34.29,3.33,17.81,3.67,2.00,2.50,2.89,5.70,23.33,1.50,7.47,27.71,0.00,33.33,5.26,4.04,0.00,0.00,1.14,22.61,0.00,0.00,2.77,20.81,0.00,0.00,2.42,14.37,0.00,0.00,1.90
0,62.50,32.86,3.33,17.27,5.36,3.50,3.50,4.49,5.70,23.33,1.50,7.47,28.54,0.00,36.67,5.52,4.02,0.00,0.00,1.19,22.49,0.00,0.00,2.79,20.72,0.00,0.00,2.41,13.91,0.00,0.00,1.83
0,59.96,30.00,0.00,16.24,5.56,3.50,3.50,4.62,5.70,23.33,1.50,7.47,28.48,0.00,38.33,5.58,4.02,0.00,0.00,1.21,22.20,0.00,0.00,2.73,20.86,0.00,0.00,2.44,14.01,0.00,0.00,1.86
0,58.95,27.14,0.00,16.16,5.57,3.50,3.50,4.62,5.68,23.33,1.50,7.47,28.70,0.00,40.00,5.47,4.04,0.00,0.00,1.21,22.65,0.00,0.00,2.93,20.80,0.00,0.00,2.41,14.22,0.00,0.00,1.94
0,59.55,27.14,0.00,16.22,5.56,3.50,3.50,4.62,5.68,23.33,1.50,7.47,28.72,0.00,40.00,5.43,4.03,0.00,0.00,1.22,23.16,0.00,0.00,2.97,20.77,0.00,0.00,2.38,14.48,0.00,0.00,2.12
0,59.69,28.57,3.33,16.31,5.56,3.50,3.50,4.62,5.69,23.33,1.50,7.47,29.56,0.00,41.67,5.59,4.02,0.00,0.00,1.23,24.34,0.00,0.00,3.23,21.09,0.00,0.00,2.46,14.24,0.00,0.00,2.08
0,60.38,30.00,3.33,17.58,5.55,3.50,3.50,4.62,5.68,23.33,1.50,7.47,29.49,0.00,40.00,5.68,4.02,0.00,0.00,1.23,24.26,0.00,0.00,3.28,21.23,0.00,0.00,2.50,14.29,0.00,0.00,2.18
0,60.40,31.43,3.33,18.67,5.55,3.50,3.50,4.62,5.67,23.33,1.50,7.47,29.68,0.00,40.00,5.96,4.03,0.00,0.00,1.30,24.62,0.00,0.00,3.31,20.85,0.00,0.00,2.43,14.02,0.00,0.00,2.11
0,62.48,32.86,3.33,19.89,5.55,3.50,3.50,4.62,5.68,23.33,1.50,7.47,30.97,0.00,41.67,6.21,3.91,0.00,0.00,1.28,24.63,0.00,0.00,3.32,20.88,0.00,0.00,2.42,14.40,0.00,0.00,2.24
0,62.13,31.43,3.33,19.76,5.56,3.50,3.50,4.62,5.68,23.33,1.50,7.47,32.58,0.00,45.00,6.85,3.93,0.00,0.00,1.32,23.74,0.00,0.00,3.12,20.85,0.00,0.00,2.39,14.28,0.00,0.00,2.24
0,63.89,32.86,6.67,21.14,5.57,3.50,3.50,4.62,5.68,23.33,1.50,7.47,32.34,0.00,45.00,6.85,3.89,0.00,0.00,1.31,23.52,0.00,0.00,3.01,20.85,0.00,0.00,2.39,14.90,0.00,0.00,2.51
0,64.17,32.86,6.67,21.12,5.55,3.50,3.50,4.62,5.26,20.00,1.00,7.47,32.20,0.00,46.67,6.66,3.77,0.00,0.00,1.22,22.64,0.00,0.00,2.90,20.33,0.00,0.00,2.31,15.32,0.00,0.00,2.56
0,66.86,34.29,10.00,21.77,5.55,3.50,3.50,4.62,2.87,10.00,0.50,3.57,31.69,0.00,46.67,6.33,3.81,0.00,0.00,1.26,22.16,0.00,0.00,2.89,20.90,0.00,0.00,2.40,14.93,0.00,0.00,2.47
0,68.69,35.71,10.00,23.62,5.55,3.50,3.50,4.62,2.28,6.67,0.50,2.43,32.56,5.00,45.00,6.94,3.90,0.00,0.00,1.32,20.71,0.00,0.00,2.50,20.68,0.00,0.00,2.40,15.77,0.00,0.00,2.71
0,66.86,32.86,10.00,23.22,5.55,3.50,3.50,4.62,2.28,6.67,0.50,2.42,33.51,5.00,50.00,7.02,3.82,0.00,0.00,1.27,18.73,0.00,0.00,2.07,20.64,0.00,4.44,2.29,16.40,0.00,0.00,2.85
0,70.24,32.86,13.33,25.54,5.56,3.50,3.50,4.62,4.10,13.33,1.50,5.29,33.63,5.00,50.00,7.00,3.94,0.00,0.00,1.33,18.51,0.00,0.00,1.81,20.29,0.00,4.44,2.17,16.43,0.00,0.00,2.97
0,70.87,34.29,13.33,24.75,5.55,3.50,3.50,4.62,4.56,16.67,1.50,5.68,35.03,5.00,58.33,7.02,3.91,0.00,0.00,1.32,16.82,0.00,0.00,1.61,20.30,0.00,4.44,2.11,16.57,0.00,0.00,3.07
0,72.68,38.57,16.67,25.44,5.55,3.50,3.50,4.62,3.02,10.00,1.00,3.51,35.57,5.00,63.33,7.08,3.67,0.00,0.00,1.23,17.43,0.00,0.00,1.69,19.99,0.00,4.44,2.02,16.48,0.00,0.00,3.09
0,76.40,42.86,20.00,27.94,5.55,3.50,3.50,4.62,2.78,10.00,1.00,3.27,36.10,5.00,70.00,7.31,3.71,0.00,0.00,1.24,17.65,0.00,0.00,1.72,20.26,0.00,4.44,2.03,15.54,0.00,0.00,2.85
0,77.38,44.29,20.00,28.80,5.55,3.50,3.50,4.62,2.77,10.00,1.00,3.26,37.53,5.00,73.33,7.84,3.87,0.00,0.00,1.32,16.58,0.00,0.00,1.56,20.41,0.00,4.44,2.06,15.82,0.00,0.00,2.89
0,81.00,48.57,26.67,30.55,3.91,2.50,2.50,3.05,4.04,16.67,1.00,4.29,37.43,5.00,71.67,8.03,3.84,0.00,0.00,1.31,16.29,0.00,0.00,1.50,20.01,0.00,4.44,1.93,16.01,0.00,0.00,2.97
0,81.91,50.00,30.00,31.33,2.44,1.50,1.00,1.75,6.19,26.67,1.50,6.50,37.38,5.00,75.00,7.79,3.82,0.00,0.00,1.29,16.48,0.00,0.00,1.52,20.19,0.00,4.44,1.93,16.81,0.00,0.00,3.25
0,83.89,52.86,30.00,33.13,1.05,0.50,0.00,0.43,7.04,30.00,2.00,8.92,37.72,5.00,75.00,7.66,3.73,0.00,0.00,1.21,16.18,0.00,0.00,1.46,21.14,0.00,4.44,2.13,16.95,0.00,0.00,3.27
0,86.97,54.29,30.00,35.64,1.78,0.50,0.50,0.80,7.07,30.00,2.00,8.93,38.16,5.00,75.00,7.69,3.76,0.00,0.00,1.26,16.32,0.00,0.00,1.48,21.21,0.00,4.44,2.12,17.79,0.00,0.00,3.51
0,89.76,55.71,30.00,38.28,3.02,1.50,2.00,2.62,7.07,30.00,2.00,8.93,39.21,5.00,80.00,8.12,3.74,0.00,0.00,1.25,15.71,0.00,0.00,1.32,21.29,0.00,4.44,2.12,17.36,0.00,0.00,3.40
0,89.55,57.14,30.00,38.88,4.30,3.00,3.00,3.46,7.07,30.00,2.00,8.93,38.83,5.00,78.33,8.09,3.68,0.00,0.00,1.22,15.79,0.00,0.00,1.29,21.19,0.00,4.44,2.12,16.45,0.00,0.00,3.08
0,94.87,58.57,33.33,43.42,4.35,3.00,3.00,3.46,7.07,30.00,2.00,8.93,39.68,5.00,81.67,8.63,3.59,0.00,0.00,1.18,15.23,0.00,0.00,1.24,20.84,0.00,4.44,2.11,16.88,0.00,0.00,3.14
0,94.00,55.71,30.00,42.03,4.35,3.00,3.00,3.46,7.07,30.00,2.00,8.93,40.31,5.00,86.67,8.65,3.51,0.00,0.00,1.15,14.53,0.00,0.00,1.09,21.00,0.00,4.44,2.15,16.82,0.00,0.00,3.13
0,97.35,58.57,33.33,43.74,4.35,3.00,3.00,3.46,7.08,30.00,2.00,8.93,40.55,5.00,90.00,8.57,3.54,0.00,0.00,1.17,14.88,0.00,0.00,1.10,21.14,0.00,4.44,2.08,17.02,0.00,0.00,3.15
0,95.51,57.14,33.33,43.05,4.35,3.00,3.00,3.46,7.07,30.00,2.00,8.93,40.58,5.00,91.67,8.52,3.58,0.00,0.00,1.20,14.83,0.00,0.00,1.10,20.90,0.00,4.44,2.09,16.87,0.00,0.00,3.15
0,98.81,60.00,36.67,46.30,4.36,3.00,3.00,3.46,7.07,30.00,2.00,8.93,39.32,5.00,90.00,7.94,3.63,0.00,0.00,1.19,14.84,0.00,0.00,1.10,20.50,0.00,4.44,2.04,16.92,0.00,0.00,3.12
0,97.28,60.00,33.33,45.95,4.35,3.00,3.00,3.46,7.07,30.00,2.00,8.93,40.10,5.00,91.67,8.16,3.76,0.00,0.00,1.26,14.95,0.00,0.00,1.10,20.16,0.00,4.44,1.99,16.14,0.00,0.00,2.81
0,98.16,60.00,33.33,46.21,4.35,3.00,3.00,3.46,7.08,30.00,2.00,8.93,40.49,5.00,95.00,8.19,3.66,0.00,0.00,1.22,15.22,0.00,0.00,1.13,20.90,0.00,4.44,2.16,15.62,0.00,0.00,2.75
0,99.07,61.43,36.67,46.54,4.36,3.00,3.00,3.46,7.08,30.00,2.00,8.93,42.92,10.00,101.67,9.13,3.92,0.00,0.00,1.31,15.09,0.00,0.00,1.11,20.63,0.00,4.44,2.24,16.13,0.00,0.00,2.77
0,99.26,62.86,33.33,46.69,4.36,3.00,3.00,3.46,7.08,30.00,2.00,8.93,41.53,5.00,101.67,8.52,3.93,0.00,0.00,1.41,16.49,0.00,0.00,1.32,21.10,0.00,4.44,2.33,15.59,0.00,0.00,2.65
0,101.05,65.71,33.33,46.84,4.36,3.00,3.00,3.46,7.08,30.00,2.00,8.93,43.36,10.00,103.33,9.44,3.91,0.00,0.00,1.47,17.05,0.00,0.00,1.37,21.18,0.00,0.00,2.43,14.92,0.00,0.00,2.50
0,101.61,68.57,33.33,47.91,4.36,3.00,3.00,3.46,5.66,26.67,1.00,6.60,43.19,10.00,100.00,9.53,4.04,0.00,0.00,1.66,16.72,0.00,0.00,1.35,21.08,0.00,0.00,2.38,14.84,0.00,0.00,2.45
0,100.84,70.00,33.33,47.25,4.36,3.00,3.00,3.46,4.82,20.00,1.00,5.69,41.50,10.00,93.33,9.26,4.07,0.00,0.00,1.66,16.54,0.00,0.00,1.33,20.83,0.00,0.00,2.34,14.39,0.00,0.00,2.21
0,97.41,64.29,30.00,46.20,4.36,3.00,3.00,3.46,4.75,20.00,1.00,5.67,40.70,10.00,90.00,9.13,4.37,0.00,0.00,1.85,16.43,0.00,0.00,1.26,20.99,0.00,0.00,2.41,14.67,0.00,0.00,2.26
0,98.85,64.29,30.00,45.86,4.36,3.00,3.00,3.46,6.80,30.00,2.00,9.11,41.55,10.00,88.33,9.12,4.42,0.00,0.00,1.85,16.35,0.00,0.00,1.24,20.77,0.00,0.00,2.45,15.14,0.00,0.00,2.35
0,101.18,64.29,30.00,49.52,4.36,3.00,3.00,3.46,8.90,36.67,3.00,12.88,41.71,10.00,86.67,9.30,4.56,0.00,0.00,2.05,16.73,0.00,0.00,1.30,20.66,0.00,0.00,2.41,15.67,0.00,0.00,2.54
0,97.06,60.00,26.67,46.82,4.35,3.00,3.00,3.46,8.43,33.33,3.00,12.35,40.39,10.00,83.33,8.92,4.61,0.00,0.00,2.08,16.91,0.00,0.00,1.30,21.05,0.00,0.00,2.45,15.60,0.00,0.00,2.43
0,93.99,55.71,20.00,45.20,4.36,3.00,3.00,3.46,7.35,26.67,3.00,11.27,40.57,10.00,81.67,8.98,4.66,0.00,0.00,2.10,16.94,0.00,0.00,1.29,20.40,0.00,0.00,2.34,15.30,0.00,0.00,2.29
0,92.75,52.86,20.00,43.79,4.36,3.00,3.00,3.46,5.25,20.00,2.00,7.65,39.75,10.00,81.67,8.62,4.76,0.00,0.00,2.16,17.11,0.00,0.00,1.31,19.49,0.00,0.00,2.14,14.98,0.00,0.00,2.18
0,90.37,51.43,20.00,40.85,4.37,3.00,3.00,3.46,5.65,23.33,2.00,7.78,40.53,10.00,83.33,9.01,4.69,0.00,0.00,2.08,16.74,0.00,0.00,1.25,19.12,0.00,0.00,2.10,14.43,0.00,0.00,2.05
0,87.38,50.00,20.00,39.18,2.26,2.00,1.50,1.16,7.37,26.67,3.00,10.75,40.28,10.00,81.67,8.95,4.74,0.00,0.00,2.08,16.19,0.00,0.00,1.20,18.84,0.00,0.00,2.12,14.64,0.00,0.00,2.04
0,88.47,51.43,20.00,38.60,0.61,0.00,0.00,0.06,9.31,36.67,3.50,13.58,41.43,10.00,85.00,9.39,4.78,0.00,0.00,2.10,16.98,0.00,0.00,1.25,19.48,0.00,2.22,2.33,14.88,0.00,0.00,2.07
0,85.85,51.43,16.67,34.91,1.98,0.50,1.00,1.77,9.53,36.67,3.50,13.79,40.83,10.00,81.67,9.34,4.90,0.00,0.00,2.17,16.59,0.00,0.00,1.14,19.45,0.00,2.22,2.34,14.65,0.00,0.00,2.02
0,83.65,48.57,16.67,34.36,3.05,1.50,2.00,2.56,9.54,36.67,3.50,13.79,41.19,10.00,80.00,9.21,5.07,0.00,0.00,2.29,16.68,0.00,0.00,1.15,19.01,0.00,2.22,2.24,14.57,0.00,0.00,1.96
0,85.19,50.00,16.67,35.23,3.62,2.00,2.50,2.74,9.52,36.67,3.50,13.79,41.39,10.00,80.00,9.42,5.01,0.00,0.00,2.25,16.60,0.00,0.00,1.15,19.08,0.00,2.22,2.26,14.69,0.00,0.00,2.10
0,85.03,48.57,16.67,33.91,5.28,3.00,3.50,3.67,9.51,36.67,3.50,13.79,42.07,10.00,83.33,9.65,4.99,0.00,0.00,2.19,16.76,0.00,0.00,1.15,19.38,0.00,4.44,2.29,15.23,0.00,0.00,2.27
0,81.67,47.14,16.67,29.61,6.11,3.50,4.00,5.22,9.51,36.67,3.50,13.79,42.28,10.00,81.67,9.67,4.97,0.00,0.00,2.17,16.77,0.00,0.00,1.20,19.18,0.00,4.44,2.34,15.28,0.00,0.00,2.29
0,81.91,44.29,16.67,29.79,6.15,3.50,4.00,5.23,9.51,36.67,3.50,13.79,42.49,10.00,80.00,10.18,4.85,0.00,0.00,2.09,16.41,0.00,0.00,1.16,19.72,0.00,4.44,2.35,15.78,0.00,0.00,2.38
0,83.13,45.71,16.67,30.37,6.15,3.50,4.00,5.23,9.50,36.67,3.50,13.79,41.78,10.00,75.00,10.10,5.01,0.00,0.00,2.12,16.32,0.00,0.00,1.15,19.22,0.00,4.44,2.26,16.72,0.00,0.00,2.52
0,82.21,44.29,13.33,29.99,6.14,3.50,4.00,5.23,9.51,36.67,3.50,13.79,40.09,5.00,70.00,9.50,4.89,0.00,0.00,2.15,16.78,0.00,0.00,1.20,19.31,0.00,4.44,2.18,16.55,0.00,0.00,2.60
0,77.30,38.57,13.33,27.62,6.12,3.50,4.00,5.23,9.51,36.67,3.50,13.79,40.19,5.00,68.33,9.59,4.65,0.00,0.00,1.94,15.93,0.00,0.00,1.15,19.20,0.00,4.44,2.09,16.26,0.00,0.00,2.65
0,77.82,37.14,13.33,28.07,6.13,3.50,4.00,5.23,9.52,36.67,3.50,13.79,39.12,0.00,66.67,8.94,4.71,0.00,0.00,1.96,15.12,0.00,0.00,1.00,18.66,0.00,4.44,1.89,16.67,0.00,0.00,2.73
0,76.16,35.71,10.00,27.26,6.13,3.50,4.00,5.23,9.52,36.67,3.50,13.79,37.61,0.00,61.67,8.51,4.57,0.00,0.00,1.76,15.42,0.00,0.00,1.01,19.13,0.00,4.44,2.02,16.71,0.00,0.00,2.74
0,73.31,31.43,10.00,25.25,6.13,3.50,4.00,5.23,9.52,36.67,3.50,13.79,38.81,0.00,65.00,8.68,4.44,0.00,0.00,1.69,15.61,0.00,0.00,1.05,19.35,0.00,4.44,2.06,17.55,0.00,0.00,3.06
0,74.00,31.43,10.00,24.88,6.13,3.50,4.00,5.23,9.52,36.67,3.50,13.79,39.00,0.00,65.00,8.71,4.46,0.00,0.00,1.68,15.44,0.00,0.00,1.05,19.42,0.00,6.67,2.04,17.21,0.00,0.00,3.04
0,74.30,32.86,10.00,25.84,6.13,3.50,4.00,5.23,7.63,26.67,2.50,10.67,38.76,0.00,61.67,9.20,4.54,0.00,0.00,1.77,15.90,0.00,0.00,1.08,19.46,0.00,6.67,2.01,17.11,0.00,0.00,3.11
0,69.38,30.00,10.00,20.62,6.13,3.50,4.00,5.23,5.54,20.00,1.50,6.85,37.19,0.00,60.00,8.52,4.39,0.00,0.00,1.54,16.07,0.00,0.00,1.08,19.78,0.00,6.67,2.01,16.93,0.00,0.00,2.97
0,71.49,32.86,10.00,21.24,6.13,3.50,4.00,5.23,4.83,16.67,1.50,6.17,38.23,0.00,63.33,8.94,4.35,0.00,0.00,1.54,15.84,0.00,0.00,1.05,19.65,0.00,6.67,2.00,16.88,0.00,0.00,3.03
0,73.94,37.14,10.00,23.08,6.13,3.50,4.00,5.23,5.21,20.00,1.50,6.16,38.33,0.00,63.33,8.92,4.55,0.00,0.00,1.64,15.33,0.00,0.00,1.02,19.17,0.00,6.67,1.97,16.50,0.00,0.00,2.92
0,74.66,40.00,10.00,23.98,6.13,3.50,4.00,5.23,7.37,30.00,2.50,9.85,38.94,0.00,65.00,9.40,4.46,0.00,0.00,1.58,15.13,0.00,0.00,0.98,19.16,0.00,6.67,1.96,17.45,0.00,0.00,3.24
0,75.99,40.00,10.00,24.60,6.13,3.50,4.00,5.23,7.80,33.33,2.50,10.48,38.22,0.00,61.67,9.10,4.56,0.00,0.00,1.67,15.03,0.00,0.00,0.98,19.20,0.00,6.67,1.96,17.43,0.00,0.00,3.16
0,75.51,40.00,10.00,24.56,6.14,3.50,4.00,5.23,6.72,30.00,2.00,10.06,39.67,0.00,63.33,9.56,4.55,0.00,0.00,1.68,15.27,0.00,0.00,1.00,19.52,0.00,6.67,2.20,17.45,0.00,0.00,3.20
0,76.03,40.00,13.33,24.23,6.14,3.50,4.00,5.23,4.15,20.00,1.00,5.85,40.15,0.00,63.33,9.85,4.49,0.00,0.00,1.65,14.71,0.00,0.00,0.95,18.91,0.00,4.44,1.99,17.77,0.00,0.00,3.35
0,74.65,38.57,13.33,23.78,5.73,3.50,3.50,5.23,3.73,16.67,1.00,4.40,38.21,0.00,60.00,8.89,4.73,0.00,0.00,1.91,13.91,0.00,0.00,0.89,19.09,0.00,4.44,1.98,17.76,0.00,0.00,3.43
0,74.49,38.57,13.33,23.67,3.78,2.00,2.00,2.86,5.39,23.33,1.50,6.73,39.21,0.00,63.33,9.34,4.56,0.00,0.00,1.81,14.12,0.00,0.00,0.90,19.26,0.00,4.44,1.96,18.09,0.00,0.00,3.48
0,75.74,41.43,13.33,23.86,3.11,1.50,1.50,2.50,6.37,30.00,1.50,7.74,38.65,0.00,61.67,9.13,4.48,0.00,0.00,1.76,14.13,0.00,0.00,0.91,18.96,0.00,4.44,1.94,17.93,0.00,0.00,3.46
0,74.25,41.43,10.00,24.26,4.52,2.00,2.00,4.44,6.47,30.00,1.50,7.80,38.83,0.00,60.00,9.26,4.54,0.00,0.00,1.79,13.88,0.00,0.00,0.88,18.26,0.00,2.22,1.80,18.00,0.00,0.00,3.41
0,74.07,41.43,10.00,23.48,4.01,2.00,2.50,3.69,6.47,30.00,1.50,7.80,39.22,0.00,61.67,9.37,4.64,0.00,0.00,1.81,13.52,0.00,0.00,0.78,18.75,0.00,4.44,1.88,17.62,0.00,0.00,3.30
0,74.50,42.86,10.00,23.64,4.57,2.50,3.50,4.01,6.47,30.00,1.50,7.80,38.40,0.00,60.00,9.33,4.91,0.00,0.00,1.99,13.80,0.00,0.00,0.80,18.81,0.00,4.44,1.99,17.37,0.00,0.00,3.22
0,70.56,38.57,6.67,21.68,5.70,3.50,4.50,4.96,6.47,30.00,1.50,7.80,38.75,0.00,61.67,9.43,4.83,0.00,0.00,2.02,13.50,0.00,0.00,0.77,18.85,0.00,4.44,2.02,17.11,0.00,0.00,3.24
0,68.85,37.14,6.67,22.05,6.18,4.00,4.50,5.27,6.46,30.00,1.50,7.80,38.19,0.00,60.00,9.15,4.88,0.00,0.00,2.06,13.19,0.00,0.00,0.76,18.85,0.00,4.44,2.06,16.67,0.00,0.00,3.02
0,70.04,38.57,6.67,21.87,6.19,4.00,4.50,5.27,6.49,30.00,1.50,7.80,38.25,0.00,63.33,9.15,5.08,0.00,0.00,2.15,12.86,0.00,0.00,0.68,18.77,0.00,4.44,2.07,16.57,0.00,0.00,2.95
0,70.06,40.00,6.67,21.53,6.19,4.00,4.50,5.27,6.48,30.00,1.50,7.80,37.82,0.00,61.67,8.88,5.20,0.00,0.00,2.14,13.28,0.00,0.00,0.72,18.69,0.00,4.44,2.04,16.63,0.00,0.00,2.95
0,70.79,38.57,10.00,21.85,6.19,4.00,4.50,5.27,6.48,30.00,1.50,7.80,38.58,0.00,65.00,9.15,5.06,0.00,0.00,2.07,13.12,0.00,0.00,0.70,17.96,0.00,4.44,1.86,16.19,0.00,0.00,2.86
0,71.33,38.57,10.00,21.86,6.21,4.00,4.50,5.27,6.48,30.00,1.50,7.80,38.61,0.00,68.33,9.12,5.19,0.00,0.00,2.11,13.45,0.00,0.00,0.74,18.44,0.00,6.67,2.00,15.80,0.00,0.00,2.67
0,73.46,41.43,10.00,23.27,6.21,4.00,4.50,5.27,6.48,30.00,1.50,7.80,38.89,0.00,71.67,9.22,5.18,0.00,0.00,2.10,13.55,0.00,0.00,0.75,18.38,0.00,4.44,2.01,15.76,0.00,0.00,2.57
0,71.97,40.00,10.00,22.89,6.21,4.00,4.50,5.27,6.48,30.00,1.50,7.80,38.27,0.00,71.67,8.79,5.05,0.00,0.00,2.01,13.10,0.00,0.00,0.73,18.58,0.00,4.44,2.04,15.69,0.00,0.00,2.56
0,71.79,41.43,6.67,22.62,6.22,4.00,4.50,5.27,6.49,30.00,1.50,7.80,37.56,0.00,70.00,8.48,4.93,0.00,0.00,1.96,12.78,0.00,0.00,0.71,18.16,0.00,4.44,1.99,15.30,0.00,0.00,2.48
0,69.34,37.14,6.67,21.65,6.21,4.00,4.50,5.27,6.48,30.00,1.50,7.80,39.72,5.00,73.33,9.08,5.10,0.00,0.00,2.14,12.69,0.00,0.00,0.71,18.11,0.00,4.44,1.99,15.47,0.00,0.00,2.44
0,68.03,37.14,6.67,20.44,6.22,4.00,4.50,5.27,6.47,30.00,1.50,7.80,40.79,5.00,75.00,9.37,5.04,0.00,0.00,2.12,13.40,0.00,0.00,0.83,17.90,0.00,4.44,1.98,15.55,0.00,0.00,2.50
0,69.77,38.57,10.00,21.32,6.24,4.00,4.50,5.27,4.43,20.00,0.50,4.36,40.49,5.00,73.33,9.33,4.95,0.00,0.00,2.09,14.12,0.00,0.00,0.92,18.12,0.00,4.44,2.04,14.77,0.00,0.00,2.25
0,67.33,37.14,10.00,20.28,6.25,4.00,4.50,5.27,3.48,13.33,0.50,3.49,41.12,5.00,73.33,9.55,5.02,0.00,0.00,2.09,14.86,0.00,0.00,1.00,18.84,0.00,4.44,2.12,14.70,0.00,0.00,2.23
0,68.77,38.57,10.00,20.92,6.24,4.00,4.50,5.27,3.45,13.33,0.50,3.48,40.73,5.00,73.33,9.71,5.18,0.00,0.00,2.19,14.81,0.00,0.00,0.98,18.55,0.00,4.44,1.97,14.91,0.00,0.00,2.24
0,67.80,40.00,6.67,21.11,6.24,4.00,4.50,5.27,4.94,20.00,1.50,6.11,38.66,5.00,70.00,8.94,5.27,0.00,0.00,2.27,14.82,0.00,0.00,0.96,18.58,0.00,4.44,1.95,14.25,0.00,0.00,2.06
0,68.24,41.43,6.67,20.93,6.24,4.00,4.50,5.27,5.54,23.33,1.50,6.96,41.92,15.00,73.33,10.69,5.16,0.00,0.00,2.20,15.37,0.00,0.00,1.06,19.01,0.00,4.44,2.00,14.59,0.00,0.00,2.15
0,68.98,42.86,6.67,21.01,6.25,4.00,4.50,5.27,4.22,20.00,1.00,5.99,41.39,15.00,73.33,10.46,5.14,0.00,0.00,2.14,15.56,0.00,0.00,1.08,19.00,0.00,4.44,2.00,14.18,0.00,0.00,2.08
0,71.40,45.71,6.67,23.11,6.25,4.00,4.50,5.27,2.96,13.33,1.00,3.71,41.42,15.00,71.67,10.40,5.20,0.00,0.00,2.14,15.72,0.00,0.00,1.08,18.54,0.00,4.44,1.95,14.34,0.00,0.00,2.03
0,69.96,42.86,6.67,22.66,4.96,3.50,3.50,4.49,2.65,10.00,1.00,3.49,41.71,15.00,71.67,10.75,5.20,0.00,0.00,2.18,16.42,0.00,0.00,1.28,19.64,0.00,6.67,2.23,13.59,0.00,0.00,1.84
0,70.58,42.86,6.67,22.73,3.14,2.50,2.00,1.87,3.07,13.33,1.00,3.66,41.83,15.00,70.00,10.82,5.09,0.00,0.00,2.19,16.81,0.00,0.00,1.33,19.45,0.00,4.44,2.14,14.05,0.00,0.00,1.93
0,73.37,45.71,10.00,25.68,2.20,1.50,1.00,1.28,5.13,20.00,2.00,7.17,40.66,15.00,68.33,10.40,4.87,0.00,0.00,2.12,16.66,0.00,0.00,1.31,19.10,0.00,4.44,2.08,13.78,0.00,0.00,1.90
0,74.23,47.14,10.00,26.14,1.80,1.00,0.50,1.26,5.26,20.00,2.00,7.22,41.27,15.00,68.33,10.19,5.07,0.00,0.00,2.25,17.67,0.00,0.00,1.40,19.50,0.00,4.44,2.10,13.96,0.00,0.00,2.00
0,77.97,50.00,13.33,27.85,2.58,1.00,1.00,2.30,5.26,20.00,2.00,7.22,43.20,15.00,73.33,10.65,5.16,0.50,0.00,2.57,19.37,0.00,0.00,1.58,19.17,0.00,4.44,2.02,14.35,0.00,0.00,2.07
1,84.15,54.29,20.00,33.39,4.07,2.00,2.50,3.61,5.25,20.00,2.00,7.22,44.50,15.00,71.67,11.24,6.58,2.00,2.50,5.96,21.37,0.00,0.00,2.17,21.66,2.22,8.89,2.59,14.96,0.00,0.00,2.24
1,88.59,54.29,30.00,37.68,4.93,3.00,3.50,4.06,5.24,20.00,2.00,7.22,47.72,20.00,78.33,12.46,7.56,3.00,5.00,11.05,24.34,6.67,5.00,3.49,23.75,4.44,13.33,4.06,15.47,0.00,0.00,2.32
1,91.30,57.14,33.33,39.42,6.86,4.00,4.50,6.21,5.24,20.00,2.00,7.22,51.17,25.00,78.33,16.84,9.49,5.50,15.00,15.52,27.14,13.33,5.00,4.54,25.75,4.44,17.78,4.88,16.03,0.00,0.00,2.65
1,97.66,62.86,43.33,43.06,7.09,4.00,4.50,6.38,5.24,20.00,2.00,7.22,52.06,25.00,76.67,17.70,10.92,7.50,20.00,18.59,29.76,16.67,5.00,5.29,25.94,4.44,17.78,4.85,16.96,3.33,0.00,2.99
1,102.84,65.71,50.00,48.93,7.07,4.00,4.50,6.38,5.24,20.00,2.00,7.22,56.09,30.00,76.67,23.08,12.72,9.00,25.00,25.54,33.22,23.33,5.00,6.70,27.37,4.44,20.00,5.32,18.35,3.33,0.00,4.10
1,106.82,67.14,53.33,53.10,7.08,4.00,4.50,6.38,5.24,20.00,2.00,7.22,57.21,35.00,75.00,24.22,13.24,10.00,27.50,27.42,34.80,23.33,5.00,7.05,27.48,4.44,20.00,5.61,18.16,3.33,0.00,4.05
1,110.11,70.00,60.00,56.17,7.07,4.00,4.50,6.38,5.24,20.00,2.00,7.22,62.63,50.00,78.33,29.52,14.46,11.00,30.00,32.53,38.10,33.33,5.00,8.19,28.47,4.44,22.22,5.84,18.68,3.33,0.00,4.29
1,117.07,74.29,70.00,60.23,7.06,4.00,4.50,6.38,5.24,20.00,2.00,7.22,63.50,50.00,80.00,29.86,15.38,12.00,30.00,35.47,41.50,40.00,10.00,9.60,29.66,4.44,24.44,6.24,18.23,3.33,0.00,4.19
1,122.44,78.57,80.00,62.80,7.06,4.00,4.50,6.38,5.24,20.00,2.00,7.22,64.34,55.00,78.33,30.29,16.34,14.00,30.00,37.13,44.63,46.67,10.00,11.11,31.54,4.44,28.89,6.69,18.13,3.33,0.00,4.20
1,125.70,77.14,80.00,67.20,7.06,4.00,4.50,6.38,5.24,20.00,2.00,7.22,65.68,55.00,80.00,31.82,18.10,16.00,35.00,41.77,46.66,53.33,10.00,11.87,34.57,6.67,33.33,8.33,19.19,3.33,0.00,4.59
1,126.06,80.00,80.00,69.18,7.04,4.00,4.50,6.38,5.24,20.00,2.00,7.22,66.14,55.00,83.33,32.00,19.65,17.50,45.00,46.66,48.51,53.33,10.00,12.37,35.14,6.67,33.33,8.56,19.45,3.33,0.00,4.72
1,130.82,84.29,86.67,71.80,7.04,4.00,4.50,6.38,5.24,20.00,2.00,7.22,67.59,60.00,83.33,33.08,21.56,20.00,55.00,50.98,50.51,56.67,10.00,12.93,36.91,8.89,33.33,9.16,20.48,3.33,0.00,5.26
1,132.86,84.29,90.00,72.33,7.04,4.00,4.50,6.38,4.82,16.67,1.50,7.22,69.57,60.00,85.00,34.35,22.91,21.50,65.00,54.87,53.48,60.00,10.00,14.21,38.84,8.89,37.78,10.14,20.83,3.33,0.00,5.45
1,136.10,82.86,96.67,77.21,7.04,4.00,4.50,6.38,3.11,10.00,1.00,3.75,71.53,60.00,86.67,36.97,24.39,23.50,70.00,58.28,56.54,63.33,15.00,15.55,40.06,8.89,40.00,10.80,20.70,3.33,0.00,5.44
1,141.74,87.14,106.67,80.37,7.04,4.00,4.50,6.38,4.54,16.67,2.00,6.36,75.74,75.00,88.33,39.60,26.53,25.50,77.50,64.43,58.83,63.33,15.00,15.83,43.88,11.11,44.44,12.99,22.76,6.67,0.00,6.00
1,146.79,88.57,113.33,86.26,7.04,4.00,4.50,6.38,6.10,26.67,2.00,8.25,81.77,90.00,93.33,44.82,26.85,26.00,77.50,64.59,65.66,76.67,25.00,20.18,49.38,13.33,55.56,15.44,23.88,6.67,0.00,6.75
1,150.31,91.43,116.67,88.54,7.04,4.00,4.50,6.38,6.27,26.67,2.00,8.37,83.03,90.00,95.00,46.33,28.88,28.50,87.50,69.82,65.90,76.67,25.00,20.90,50.91,13.33,57.78,16.40,24.88,6.67,0.00,7.23
1,155.21,94.29,123.33,94.31,7.05,4.00,4.50,6.38,5.93,23.33,2.00,8.23,87.67,100.00,98.33,49.39,30.38,30.50,95.00,73.88,69.19,83.33,25.00,23.05,52.13,13.33,57.78,16.74,25.27,6.67,0.00,7.37
1,155.85,94.29,130.00,95.67,7.04,4.00,4.50,6.38,3.93,16.67,1.00,5.00,96.60,120.00,103.33,58.30,32.73,33.00,110.00,79.61,72.13,90.00,25.00,24.48,54.69,15.56,62.22,17.83,26.02,6.67,0.00,7.59
1,160.06,98.57,133.33,97.56,7.05,4.00,4.50,6.38,5.25,23.33,1.50,6.86,98.61,120.00,105.00,59.86,34.88,35.00,117.50,86.67,74.61,96.67,25.00,26.70,55.22,15.56,66.67,17.99,27.84,10.00,0.00,8.28
1,161.74,98.57,136.67,101.85,5.16,3.00,3.50,4.31,7.36,30.00,2.50,10.67,102.05,135.00,101.67,64.31,36.05,36.50,120.00,90.53,78.24,103.33,25.00,30.67,56.27,15.56,68.89,18.40,29.05,10.00,0.00,8.95
1,160.83,98.57,133.33,101.67,4.75,3.00,3.00,3.55,7.49,30.00,2.50,10.72,102.96,135.00,105.00,64.60,35.26,35.00,117.50,89.42,79.07,110.00,25.00,31.27,55.48,15.56,66.67,18.32,28.67,10.00,0.00,8.88
1,160.04,98.57,130.00,102.31,5.11,3.00,3.50,4.07,7.50,30.00,2.50,10.72,105.12,140.00,101.67,66.94,34.61,34.50,115.00,86.77,80.21,116.67,25.00,31.65,53.82,11.11,64.44,16.85,29.37,10.00,0.00,9.01
1,159.49,97.14,126.67,103.78,4.58,3.50,3.50,3.00,7.50,30.00,2.50,10.72,105.57,145.00,105.00,65.84,34.13,34.00,105.00,86.06,78.73,110.00,20.00,31.96,53.44,11.11,66.67,17.00,29.87,10.00,0.00,9.30
1,160.25,95.71,123.33,104.97,4.32,3.50,3.50,2.64,7.49,30.00,2.50,10.72,105.04,145.00,108.33,65.11,33.81,32.50,102.50,86.08,76.16,106.67,20.00,30.87,52.98,11.11,62.22,16.86,29.74,10.00,0.00,9.04
1,156.21,94.29,120.00,100.48,4.31,3.50,3.50,2.64,7.49,30.00,2.50,10.72,106.98,150.00,108.33,66.19,33.98,33.00,107.50,87.22,74.45,100.00,20.00,30.39,53.64,11.11,64.44,16.97,28.46,6.67,0.00,8.14
1,159.03,97.14,130.00,100.57,4.31,3.50,3.50,2.64,7.49,30.00,2.50,10.72,104.36,145.00,111.67,61.26,33.22,33.00,102.50,82.25,76.14,106.67,20.00,30.74,52.29,11.11,62.22,16.25,28.48,6.67,0.00,7.88
1,155.63,91.43,123.33,99.50,4.32,3.50,3.50,2.64,7.50,30.00,2.50,10.72,100.24,130.00,110.00,56.21,32.40,32.50,100.00,78.12,76.95,106.67,25.00,31.04,52.47,11.11,62.22,16.32,27.85,6.67,0.00,7.62
1,152.37,90.00,113.33,96.74,4.32,3.50,3.50,2.64,7.50,30.00,2.50,10.72,100.78,130.00,113.33,56.35,32.46,33.00,102.50,77.61,77.24,110.00,20.00,30.47,52.39,11.11,60.00,16.51,28.51,6.67,0.00,7.76
1,150.45,90.00,110.00,97.85,4.33,3.50,3.50,2.64,7.50,30.00,2.50,10.72,99.62,130.00,113.33,56.14,31.73,31.50,102.50,76.38,75.60,106.67,20.00,29.69,51.97,11.11,60.00,16.42,28.97,6.67,0.00,7.97
1,147.74,87.14,110.00,94.94,4.32,3.50,3.50,2.64,7.49,30.00,2.50,10.72,95.66,125.00,110.00,54.03,31.19,30.50,100.00,75.03,74.86,106.67,20.00,29.65,49.58,8.89,57.78,15.08,28.68,6.67,0.00,7.89
1,151.29,87.14,120.00,96.73,4.31,3.50,3.50,2.64,7.50,30.00,2.50,10.72,95.47,125.00,108.33,53.78,30.04,29.50,92.50,72.19,76.06,110.00,20.00,30.14,49.28,8.89,57.78,14.94,28.57,6.67,0.00,7.76
1,148.24,82.86,113.33,94.57,4.31,3.50,3.50,2.64,7.51,30.00,2.50,10.72,94.06,125.00,106.67,53.04,27.89,27.00,80.00,65.78,75.65,110.00,20.00,30.24,49.03,8.89,57.78,14.92,27.87,6.67,0.00,7.67
1,149.36,84.29,113.33,96.21,4.31,3.50,3.50,2.64,7.52,30.00,2.50,10.72,93.58,125.00,110.00,51.95,27.08,25.50,72.50,64.45,75.89,110.00,20.00,30.37,47.61,6.67,60.00,14.01,27.56,6.67,0.00,7.31
1,146.49,82.86,113.33,93.78,4.31,3.50,3.50,2.64,7.52,30.00,2.50,10.72,92.37,125.00,108.33,48.87,25.39,23.00,65.00,60.41,75.30,113.33,15.00,29.74,46.00,6.67,57.78,13.38,27.77,6.67,0.00,7.28
1,144.04,80.00,106.67,91.98,4.31,3.50,3.50,2.64,7.54,26.67,2.00,10.72,89.54,115.00,106.67,48.12,24.81,23.50,60.00,58.35,76.32,116.67,15.00,30.36,42.56,4.44,53.33,10.91,27.01,6.67,0.00,6.94
1,142.69,81.43,103.33,91.92,4.31,3.50,3.50,2.64,7.04,26.67,2.50,10.43,85.41,100.00,101.67,45.12,24.56,23.50,57.50,57.39,71.62,110.00,5.00,27.69,41.96,4.44,48.89,10.91,25.88,3.33,0.00,6.32
1,139.58,78.57,100.00,87.25,4.31,3.50,3.50,2.64,6.71,23.33,2.50,9.69,84.20,100.00,100.00,42.39,24.36,23.00,55.00,56.84,70.65,106.67,5.00,26.93,39.29,2.22,51.11,8.91,24.98,3.33,0.00,5.66
1,139.56,80.00,103.33,87.44,4.32,3.50,3.50,2.64,6.70,23.33,2.50,9.69,81.42,95.00,98.33,40.73,23.85,22.50,52.50,54.77,69.28,103.33,5.00,25.78,39.52,2.22,51.11,9.05,24.51,3.33,0.00,5.62
1,140.45,80.00,103.33,88.43,4.33,3.50,3.50,2.64,6.69,23.33,2.50,9.69,76.75,80.00,98.33,34.76,22.21,21.50,37.50,50.77,69.41,106.67,5.00,25.29,38.56,2.22,48.89,8.40,24.62,3.33,0.00,5.60
1,139.17,77.14,100.00,86.58,4.33,3.50,3.50,2.64,6.51,23.33,2.50,9.20,73.52,70.00,96.67,32.10,20.10,19.50,27.50,44.01,69.91,103.33,5.00,25.01,36.92,0.00,42.22,7.75,22.91,0.00,0.00,4.84
1,139.23,77.14,100.00,86.93,4.34,3.50,3.50,2.64,6.45,23.33,2.50,9.01,71.11,60.00,98.33,29.73,19.05,18.00,25.00,39.53,66.85,96.67,5.00,20.24,37.59,0.00,44.44,7.93,22.62,0.00,0.00,4.61
1,140.26,75.71,103.33,88.30,3.50,3.00,2.50,2.08,6.45,23.33,2.50,9.01,71.75,65.00,98.33,29.48,19.48,18.50,27.50,40.19,67.67,96.67,5.00,20.55,38.12,0.00,44.44,7.86,21.47,0.00,0.00,4.20
1,141.93,78.57,110.00,87.27,3.61,2.50,2.00,2.49,6.44,23.33,2.50,9.01,70.25,55.00,100.00,27.92,19.49,18.00,27.50,39.29,66.95,93.33,5.00,20.28,37.96,0.00,44.44,7.97,20.80,0.00,0.00,4.01
1,143.88,81.43,113.33,86.44,3.42,2.00,1.50,2.58,6.46,23.33,2.50,9.02,64.61,45.00,101.67,23.82,18.75,17.50,27.50,35.34,64.70,90.00,5.00,18.30,36.34,0.00,40.00,7.17,19.75,0.00,0.00,3.56
1,141.95,80.00,110.00,86.55,3.69,1.50,1.50,2.50,6.47,23.33,2.50,9.02,65.22,45.00,101.67,24.06,17.74,17.00,25.00,31.05,66.03,93.33,5.00,18.56,36.70,0.00,44.44,7.13,19.68,0.00,0.00,3.56
1,143.69,80.00,113.33,89.66,4.50,2.00,2.00,4.00,6.47,23.33,2.50,9.02,63.57,40.00,103.33,22.55,16.29,15.00,17.50,27.48,67.08,93.33,5.00,18.71,36.61,0.00,44.44,7.15,19.56,0.00,0.00,3.60
1,139.24,74.29,100.00,88.32,4.54,2.00,2.00,4.01,6.47,23.33,2.50,9.02,62.89,40.00,100.00,21.62,16.00,14.50,17.50,26.63,65.38,90.00,5.00,18.02,36.84,0.00,44.44,7.15,19.93,0.00,0.00,3.78
1,139.34,72.86,103.33,87.28,4.52,2.00,2.00,4.01,6.47,23.33,2.50,9.02,62.77,40.00,98.33,22.17,15.92,14.00,17.50,26.21,62.24,80.00,0.00,17.32,36.63,0.00,44.44,7.25,19.98,0.00,0.00,3.76
1,137.50,72.86,103.33,86.19,4.52,2.00,2.00,4.01,6.47,23.33,2.50,9.02,60.10,35.00,93.33,21.21,15.07,13.00,15.00,23.67,60.64,73.33,0.00,16.56,36.07,0.00,44.44,6.96,19.74,0.00,0.00,3.76
1,136.37,71.43,100.00,82.32,4.52,2.00,2.00,4.01,6.47,23.33,2.50,9.02,59.54,35.00,91.67,20.69,15.59,13.50,15.00,24.37,58.50,66.67,0.00,15.95,35.48,0.00,40.00,6.47,18.94,0.00,0.00,3.37
1,134.10,68.57,96.67,80.66,4.52,2.00,2.00,4.01,6.47,23.33,2.50,9.02,59.74,35.00,91.67,20.63,14.90,12.50,12.50,22.22,59.02,63.33,0.00,15.74,34.74,0.00,37.78,6.25,18.45,0.00,0.00,3.17
1,131.95,68.57,90.00,78.51,4.53,2.00,2.00,4.01,6.47,23.33,2.50,9.02,62.08,35.00,95.00,21.77,14.93,12.50,12.50,21.49,57.33,56.67,0.00,15.14,36.11,0.00,42.22,6.85,18.66,0.00,0.00,3.21
1,134.88,72.86,93.33,79.77,4.53,2.00,2.00,4.01,6.47,23.33,2.50,9.02,62.90,35.00,98.33,22.03,15.58,13.50,15.00,21.79,58.81,60.00,0.00,15.80,38.23,0.00,51.11,7.35,19.36,0.00,0.00,3.35
1,133.77,72.86,96.67,79.58,4.53,2.00,2.00,4.01,6.45,23.33,2.50,9.02,61.93,30.00,96.67,21.71,16.26,15.00,20.00,23.38,57.32,53.33,0.00,15.16,39.47,2.22,51.11,7.91,19.44,0.00,0.00,3.31
1,132.71,70.00,96.67,80.06,4.53,2.00,2.00,4.01,6.46,23.33,2.50,9.02,60.36,30.00,93.33,21.51,16.87,15.50,22.50,25.26,57.73,56.67,0.00,15.24,40.44,2.22,51.11,8.23,18.74,0.00,0.00,3.16
1,137.92,72.86,96.67,84.97,4.53,2.00,2.00,4.01,6.44,23.33,2.50,9.02,58.68,20.00,93.33,19.89,16.40,14.50,22.50,23.96,59.33,60.00,5.00,16.20,41.41,2.22,53.33,8.62,18.52,0.00,0.00,3.13
1,133.24,68.57,93.33,80.59,4.52,2.00,2.00,4.01,4.39,16.67,1.50,5.57,58.80,20.00,96.67,19.44,16.01,13.50,22.50,22.09,59.34,63.33,5.00,16.32,39.10,2.22,48.89,7.69,18.24,0.00,0.00,3.14
1,135.71,72.86,100.00,82.25,4.53,2.00,2.00,4.01,6.27,20.00,2.50,8.89,57.71,15.00,95.00,18.58,15.71,12.50,20.00,21.18,59.51,66.67,5.00,16.58,39.21,2.22,46.67,7.79,18.07,0.00,0.00,3.14
1,134.90,72.86,100.00,81.36,4.52,2.00,2.00,4.01,7.35,26.67,2.50,10.20,56.69,15.00,95.00,18.15,15.02,11.50,15.00,18.83,59.27,66.67,5.00,16.16,38.69,2.22,46.67,7.55,18.39,0.00,0.00,3.21
1,134.02,68.57,96.67,82.29,4.52,2.00,2.00,4.01,7.42,26.67,2.50,10.23,54.24,15.00,91.67,16.47,15.11,11.00,17.50,18.90,58.46,60.00,5.00,16.02,38.79,2.22,48.89,7.43,18.52,0.00,0.00,3.28
1,138.37,71.43,96.67,85.30,4.51,2.00,2.00,4.01,7.14,26.67,2.00,10.23,53.75,15.00,91.67,16.38,15.54,12.50,17.50,19.52,60.04,63.33,5.00,16.36,39.90,2.22,51.11,7.85,18.04,0.00,0.00,3.14
1,136.99,71.43,100.00,82.75,4.51,2.00,2.00,4.01,5.25,23.33,1.00,7.51,54.68,15.00,96.67,16.46,15.80,12.50,17.50,19.97,58.95,63.33,5.00,16.14,39.66,2.22,48.89,7.94,17.43,0.00,0.00,2.95
1,133.20,70.00,96.67,77.04,4.51,2.00,2.00,4.01,6.14,26.67,2.00,8.06,51.66,5.00,95.00,13.86,15.58,13.50,15.00,18.93,56.75,56.67,5.00,15.51,38.21,2.22,46.67,7.55,17.03,0.00,0.00,2.77
1,132.71,70.00,90.00,76.17,3.41,1.50,1.00,3.44,6.78,30.00,2.00,8.94,48.92,5.00,88.33,13.29,15.21,13.00,15.00,18.66,56.57,60.00,5.00,15.47,38.54,2.22,44.44,7.69,17.26,0.00,0.00,2.77
1,128.96,67.14,90.00,73.95,4.15,1.50,2.00,4.06,6.78,30.00,2.00,8.94,49.46,5.00,86.67,13.26,15.08,13.00,15.00,18.37,56.72,60.00,5.00,15.61,38.84,2.22,44.44,7.96,17.42,0.00,0.00,2.86
1,129.56,67.14,93.33,72.23,5.76,3.00,3.50,5.47,6.78,30.00,2.00,8.94,48.63,5.00,86.67,12.73,14.98,12.50,15.00,18.08,56.26,56.67,5.00,15.36,39.79,2.22,44.44,8.35,17.35,0.00,0.00,2.79
1,127.26,67.14,93.33,67.72,6.07,3.00,4.00,5.76,6.78,30.00,2.00,8.94,47.71,5.00,80.00,12.37,15.15,12.50,15.00,18.09,54.43,56.67,5.00,15.22,39.88,2.22,46.67,8.36,16.83,0.00,0.00,2.66
1,125.56,68.57,90.00,65.88,7.79,4.00,5.00,8.21,6.78,30.00,2.00,8.94,48.49,5.00,85.00,12.87,15.41,13.00,15.00,18.42,56.43,60.00,5.00,16.02,40.46,2.22,46.67,8.48,16.88,0.00,0.00,2.62
1,125.30,70.00,86.67,63.68,7.82,4.00,5.00,8.22,6.78,30.00,2.00,8.94,46.62,0.00,83.33,11.86,15.56,13.00,15.00,18.53,59.38,70.00,5.00,17.38,40.08,2.22,46.67,8.52,17.04,0.00,0.00,2.63
1,131.16,75.71,96.67,66.83,7.82,4.00,5.00,8.22,6.78,30.00,2.00,8.94,46.95,0.00,83.33,11.68,15.65,13.00,15.00,18.55,60.13,73.33,5.00,17.96,39.71,2.22,44.44,8.53,16.99,0.00,0.00,2.62
1,132.52,75.71,103.33,68.57,7.82,4.00,5.00,8.22,6.78,30.00,2.00,8.94,47.54,0.00,85.00,12.00,15.29,13.00,15.00,18.65,63.77,80.00,10.00,19.90,40.11,2.22,46.67,8.64,17.11,0.00,0.00,2.64
1,130.69,75.71,100.00,66.86,7.82,4.00,5.00,8.22,6.77,30.00,2.00,8.94,48.02,0.00,85.00,12.48,15.11,12.50,15.00,18.29,62.56,76.67,10.00,19.56,40.21,2.22,46.67,8.73,17.54,0.00,0.00,2.85
1,130.68,75.71,96.67,66.37,7.82,4.00,5.00,8.22,6.77,30.00,2.00,8.94,46.86,0.00,83.33,11.81,15.17,12.50,15.00,18.57,61.44,76.67,10.00,19.30,39.64,2.22,46.67,8.50,17.36,0.00,0.00,2.86
1,132.92,78.57,100.00,68.56,7.82,4.00,5.00,8.22,6.77,30.00,2.00,8.94,47.07,0.00,81.67,11.84,15.80,13.50,17.50,19.54,60.04,73.33,10.00,18.42,37.98,2.22,40.00,7.72,17.07,0.00,0.00,2.77
1,134.91,78.57,100.00,69.74,7.82,4.00,5.00,8.22,6.77,30.00,2.00,8.94,45.27,0.00,78.33,11.41,14.15,11.00,10.00,15.72,59.57,73.33,10.00,18.07,34.96,0.00,31.11,6.84,16.68,0.00,0.00,2.73
1,135.89,81.43,100.00,68.50,7.82,4.00,5.00,8.22,6.77,30.00,2.00,8.94,46.23,0.00,80.00,11.54,13.46,11.00,7.50,13.81,59.09,73.33,10.00,17.91,34.48,0.00,33.33,6.69,16.62,0.00,0.00,2.71
1,131.30,78.57,100.00,63.81,7.81,4.00,5.00,8.22,6.77,30.00,2.00,8.94,46.02,0.00,80.00,11.38,13.32,11.00,7.50,13.72,58.03,66.67,10.00,17.01,33.89,0.00,33.33,6.29,16.80,0.00,0.00,2.75
1,129.49,77.14,96.67,61.15,7.83,4.00,5.00,8.22,6.77,30.00,2.00,8.94,46.25,0.00,80.00,11.22,13.36,11.00,7.50,13.64,55.06,60.00,5.00,15.06,34.46,0.00,37.78,6.55,16.75,0.00,0.00,2.71
1,130.26,75.71,100.00,60.83,7.83,4.00,5.00,8.22,4.83,23.33,1.00,5.71,47.33,0.00,81.67,11.77,13.32,10.50,7.50,13.64,55.98,60.00,5.00,15.03,35.62,0.00,40.00,6.77,16.72,0.00,0.00,2.79
1,128.54,72.86,100.00,59.11,7.82,4.00,5.00,8.22,5.61,23.33,2.00,7.61,46.18,0.00,78.33,11.20,12.80,10.50,5.00,12.02,56.43,56.67,5.00,15.08,35.09,0.00,37.78,6.65,16.69,0.00,0.00,2.83
1,126.36,72.86,96.67,57.03,7.81,4.00,5.00,8.22,7.55,30.00,3.00,11.34,46.96,0.00,85.00,11.26,12.47,10.00,2.50,11.35,56.85,63.33,5.00,15.42,33.61,0.00,35.56,6.27,15.84,0.00,0.00,2.60
1,124.85,72.86,93.33,54.76,7.81,4.00,5.00,8.22,8.22,36.67,3.00,11.90,47.74,0.00,86.67,11.28,12.92,10.50,5.00,12.06,54.40,56.67,5.00,14.38,32.90,0.00,35.56,6.08,15.70,0.00,0.00,2.55
1,121.13,70.00,86.67,53.89,7.82,4.00,5.00,8.22,8.23,36.67,3.00,11.90,46.74,0.00,81.67,11.20,12.24,9.50,5.00,11.18,53.28,56.67,5.00,14.14,33.81,2.22,37.78,6.40,16.69,0.00,0.00,2.88
1,123.72,75.71,93.33,54.72,7.82,4.00,5.00,8.22,7.05,26.67,2.50,11.37,46.72,0.00,83.33,11.40,12.20,9.50,5.00,11.27,54.10,56.67,5.00,14.23,34.30,2.22,42.22,6.37,16.34,0.00,0.00,2.83
1,124.46,77.14,93.33,53.74,7.83,4.00,5.00,8.22,6.20,23.33,2.50,8.37,46.85,0.00,81.67,11.76,12.30,10.00,5.00,11.86,55.56,56.67,10.00,14.53,34.84,2.22,44.44,6.37,16.72,0.00,0.00,2.91
1,125.40,75.71,90.00,57.10,7.41,4.00,4.50,8.22,8.12,30.00,3.50,12.12,46.22,0.00,81.67,11.38,12.13,9.50,5.00,11.66,55.84,56.67,10.00,15.50,33.96,2.22,44.44,6.14,16.68,0.00,0.00,3.02
1,125.03,75.71,86.67,56.81,5.08,2.50,2.50,5.66,8.80,33.33,3.50,13.04,45.51,0.00,81.67,11.03,12.40,10.50,7.50,12.23,56.94,63.33,10.00,16.08,33.04,2.22,42.22,5.66,16.75,0.00,0.00,3.08
1,125.46,74.29,83.33,58.55,4.21,1.50,2.50,4.35,8.82,33.33,3.50,13.04,45.12,0.00,81.67,11.06,12.55,12.00,7.50,12.76,56.48,60.00,10.00,15.83,32.55,2.22,40.00,5.48,16.90,0.00,0.00,3.14
1,126.52,72.86,90.00,62.41,3.46,2.00,2.00,2.84,8.83,33.33,3.50,13.04,43.97,0.00,78.33,10.62,12.73,13.00,7.50,13.11,55.24,60.00,10.00,15.63,32.05,2.22,42.22,5.51,16.87,0.00,0.00,3.11
1,132.20,78.57,100.00,65.32,5.72,3.00,3.50,5.30,8.84,33.33,3.50,13.04,45.03,0.00,81.67,10.79,12.74,13.00,7.50,13.38,52.54,53.33,10.00,14.11,31.82,2.22,44.44,5.25,17.18,0.00,0.00,3.28
1,135.25,82.86,106.67,65.80,7.49,4.00,4.50,7.77,8.84,33.33,3.50,13.04,45.62,0.00,86.67,10.91,12.82,12.50,7.50,13.46,51.00,46.67,10.00,13.33,32.34,2.22,46.67,5.43,17.04,0.00,0.00,3.20
1,134.37,78.57,106.67,67.11,7.52,4.00,4.50,7.78,8.84,33.33,3.50,13.04,45.50,0.00,86.67,11.02,12.46,12.00,7.50,12.61,49.07,40.00,5.00,11.72,32.57,2.22,46.67,5.42,17.16,0.00,0.00,3.21
1,138.32,82.86,106.67,72.23,7.52,4.00,4.50,7.78,8.84,33.33,3.50,13.04,45.25,0.00,88.33,10.52,12.93,13.50,7.50,13.07,51.81,46.67,5.00,13.30,33.14,2.22,48.89,5.46,16.76,0.00,0.00,3.14
1,139.03,82.86,106.67,74.47,7.52,4.00,4.50,7.78,8.84,33.33,3.50,13.04,46.01,0.00,90.00,10.89,13.06,13.50,7.50,13.36,52.69,50.00,5.00,13.59,33.58,2.22,48.89,5.83,16.66,0.00,0.00,2.96
1,139.39,81.43,106.67,76.89,7.52,4.00,4.50,7.78,8.84,33.33,3.50,13.04,45.18,0.00,88.33,10.54,12.20,12.50,5.00,12.25,54.31,56.67,5.00,14.87,32.56,2.22,46.67,5.60,16.24,0.00,0.00,2.88
1,137.15,77.14,103.33,76.52,7.52,4.00,4.50,7.78,8.84,33.33,3.50,13.04,45.27,0.00,90.00,10.40,12.54,13.00,5.00,12.67,55.87,63.33,5.00,15.59,33.32,2.22,46.67,5.72,16.17,0.00,0.00,2.79
1,133.49,74.29,96.67,75.31,7.52,4.00,4.50,7.78,8.85,33.33,3.50,13.04,45.69,0.00,93.33,10.41,12.39,13.00,5.00,12.61,55.70,63.33,5.00,15.67,34.32,2.22,46.67,5.88,16.37,0.00,0.00,2.79
1,133.44,75.71,96.67,74.45,7.52,4.00,4.50,7.78,8.85,33.33,3.50,13.04,44.72,0.00,91.67,10.15,12.53,13.00,5.00,12.60,54.69,60.00,5.00,15.21,35.28,2.22,44.44,6.57,16.18,0.00,0.00,2.74
1,140.30,81.43,103.33,79.38,7.51,4.00,4.50,7.78,8.85,33.33,3.50,13.04,45.02,0.00,96.67,9.94,12.96,14.00,5.00,13.27,54.51,56.67,5.00,15.17,34.90,2.22,42.22,6.17,16.17,0.00,0.00,2.72
1,146.88,88.57,110.00,84.71,7.51,4.00,4.50,7.78,8.85,33.33,3.50,13.04,43.44,0.00,95.00,9.51,12.42,14.00,5.00,12.68,52.83,56.67,5.00,15.02,33.64,2.22,40.00,5.86,16.04,0.00,0.00,2.59
1,145.70,85.71,103.33,86.11,7.51,4.00,4.50,7.78,6.95,26.67,2.50,9.92,44.50,0.00,101.67,9.60,12.61,14.00,5.00,12.79,54.47,63.33,5.00,15.64,32.90,2.22,37.78,5.72,16.02,0.00,0.00,2.61
1,146.09,85.71,106.67,85.89,7.50,4.00,4.50,7.78,4.88,20.00,1.50,6.10,44.68,0.00,96.67,9.69,12.67,14.00,5.00,13.06,54.86,60.00,5.00,17.00,33.61,2.22,40.00,5.80,15.63,0.00,0.00,2.48
1,148.39,90.00,113.33,86.62,7.52,4.00,4.50,7.78,5.42,20.00,2.00,6.82,42.86,0.00,96.67,9.09,11.96,13.00,2.50,12.04,54.77,60.00,5.00,17.01,33.50,2.22,37.78,5.73,15.36,0.00,0.00,2.39
1,152.22,91.43,116.67,89.52,7.51,4.00,4.50,7.78,6.32,26.67,2.00,7.61,43.05,0.00,100.00,9.06,12.30,13.00,2.50,12.43,56.18,63.33,5.00,17.32,32.64,0.00,33.33,5.18,15.07,0.00,0.00,2.29
1,149.18,88.57,106.67,87.52,7.51,4.00,4.50,7.78,6.36,26.67,2.00,7.61,43.73,0.00,96.67,9.42,12.15,12.00,5.00,13.00,57.53,66.67,5.00,17.81,33.20,0.00,33.33,5.36,15.09,0.00,0.00,2.25
1,152.95,88.57,120.00,91.27,7.51,4.00,4.50,7.78,6.36,26.67,2.00,7.61,42.73,0.00,98.33,8.49,12.38,12.50,7.50,12.36,57.71,70.00,5.00,18.15,32.07,0.00,31.11,5.11,15.31,0.00,0.00,2.28
1,148.57,87.14,110.00,88.03,7.50,4.00,4.50,7.78,5.24,23.33,1.00,6.22,43.92,0.00,98.33,8.82,12.45,12.00,7.50,12.19,55.87,60.00,0.00,16.35,31.81,0.00,33.33,5.13,14.75,0.00,0.00,2.00
1,150.91,88.57,120.00,88.55,7.50,4.00,4.50,7.78,5.42,26.67,1.00,4.36,43.02,0.00,95.00,8.87,12.59,12.50,5.00,12.84,53.35,53.33,0.00,15.34,31.56,0.00,33.33,5.08,15.04,0.00,0.00,2.07
1,149.61,90.00,123.33,87.08,7.09,4.00,4.00,7.78,6.23,30.00,1.50,6.73,42.58,0.00,95.00,8.64,12.25,11.50,5.00,12.19,53.11,53.33,0.00,15.15,30.72,0.00,28.89,4.86,14.90,0.00,0.00,2.02
1,151.64,88.57,126.67,88.37,4.95,2.50,2.50,5.34,6.27,30.00,1.50,6.74,43.44,0.00,96.67,8.90,12.32,11.00,7.50,12.16,52.51,50.00,0.00,15.10,30.91,0.00,28.89,4.86,15.03,0.00,0.00,2.07
1,147.64,87.14,116.67,84.67,3.83,1.50,2.50,3.65,6.25,30.00,1.50,6.74,42.94,0.00,95.00,8.80,12.42,11.00,7.50,12.08,52.07,50.00,0.00,14.99,31.66,0.00,28.89,5.05,14.77,0.00,0.00,2.00
1,141.59,80.00,103.33,82.30,3.17,2.00,2.00,2.23,6.25,30.00,1.50,6.74,42.57,0.00,95.00,8.62,12.65,12.00,10.00,12.58,52.03,50.00,0.00,14.86,31.33,0.00,26.67,4.88,15.00,0.00,0.00,2.04
1,140.00,78.57,100.00,81.52,3.10,2.00,2.00,2.20,6.26,30.00,1.50,6.74,44.82,5.00,98.33,9.43,12.96,12.00,12.50,13.27,53.08,53.33,0.00,15.46,31.91,0.00,26.67,4.98,14.91,0.00,0.00,2.06
1,136.82,77.14,96.67,76.30,3.10,2.00,2.00,2.20,6.25,30.00,1.50,6.74,43.35,5.00,93.33,8.92,13.05,12.00,12.50,13.22,50.65,46.67,0.00,13.91,32.29,0.00,28.89,5.06,14.88,0.00,0.00,2.07
1,137.18,75.71,103.33,76.85,3.10,2.00,2.00,2.20,6.25,30.00,1.50,6.74,43.79,5.00,91.67,8.73,12.93,11.00,12.50,13.36,49.74,43.33,0.00,13.73,30.76,0.00,26.67,4.63,15.52,0.00,0.00,2.44
1,139.56,75.71,113.33,75.93,3.10,2.00,2.00,2.20,6.25,30.00,1.50,6.74,44.73,10.00,91.67,10.07,13.77,11.50,17.50,15.96,47.62,36.67,0.00,12.54,31.03,0.00,26.67,4.59,15.53,0.00,0.00,2.50
1,140.21,77.14,110.00,76.78,3.10,2.00,2.00,2.20,6.25,30.00,1.50,6.74,45.63,10.00,88.33,10.75,14.02,11.50,17.50,16.54,45.91,30.00,0.00,11.67,30.37,0.00,26.67,4.57,15.00,0.00,0.00,2.42
1,145.81,80.00,116.67,81.56,3.11,2.00,2.00,2.21,6.24,30.00,1.50,6.74,46.16,10.00,90.00,10.94,14.43,12.00,20.00,17.58,45.44,30.00,0.00,11.66,30.45,0.00,28.89,4.55,14.91,0.00,0.00,2.41
1,149.44,84.29,123.33,86.07,3.11,2.00,2.00,2.21,6.24,30.00,1.50,6.74,46.56,10.00,90.00,11.17,15.12,13.50,22.50,18.64,44.91,30.00,0.00,11.39,29.56,0.00,28.89,4.17,14.91,0.00,0.00,2.51
1,146.41,84.29,120.00,81.51,3.12,2.00,2.00,2.21,6.24,30.00,1.50,6.74,45.21,10.00,85.00,10.94,14.80,12.00,22.50,18.20,45.18,33.33,0.00,11.32,29.22,0.00,28.89,3.97,15.25,0.00,0.00,2.64
1,144.25,81.43,116.67,80.40,3.13,2.00,2.00,2.21,6.24,30.00,1.50,6.74,44.03,10.00,81.67,10.55,15.15,12.50,22.50,18.67,45.55,33.33,0.00,11.93,28.29,0.00,24.44,3.97,15.25,0.00,0.00,2.72
1,142.76,81.43,116.67,81.01,3.12,2.00,2.00,2.21,6.24,30.00,1.50,6.74,43.64,10.00,76.67,10.46,15.35,13.50,22.50,18.96,44.78,26.67,0.00,11.58,28.19,0.00,24.44,4.02,15.07,0.00,0.00,2.66
1,141.60,81.43,110.00,78.96,3.13,2.00,2.00,2.21,6.24,30.00,1.50,6.74,43.07,10.00,78.33,10.30,15.31,14.50,22.50,18.86,41.52,20.00,0.00,9.04,28.64,0.00,22.22,4.15,15.78,0.00,0.00,2.83
1,143.85,77.14,110.00,82.20,3.12,2.00,2.00,2.21,4.97,23.33,1.00,5.34,43.09,10.00,75.00,10.56,15.31,14.00,22.50,18.72,42.87,20.00,0.00,8.82,29.42,0.00,28.89,4.30,16.38,0.00,0.00,2.92
1,141.17,77.14,110.00,81.37,3.13,2.00,2.00,2.21,5.95,26.67,2.00,7.68,43.30,15.00,73.33,10.65,14.97,13.50,22.50,18.27,42.04,16.67,0.00,8.64,30.15,0.00,33.33,4.65,16.43,0.00,0.00,2.95
1,143.48,80.00,120.00,81.63,3.15,2.00,2.00,2.21,7.50,33.33,2.50,10.11,43.10,15.00,76.67,10.77,14.71,14.00,20.00,16.78,41.53,16.67,0.00,8.28,30.58,0.00,31.11,4.84,17.41,0.00,0.00,3.30
1,143.35,78.57,120.00,80.99,3.16,2.00,2.00,2.21,8.36,40.00,2.50,10.84,42.74,15.00,75.00,10.58,14.24,12.50,17.50,16.16,40.17,10.00,0.00,7.65,30.89,0.00,33.33,5.01,17.16,0.00,0.00,3.34
1,145.05,81.43,126.67,81.19,3.16,2.00,2.00,2.21,7.92,36.67,2.50,10.65,45.19,20.00,80.00,11.79,14.72,14.00,17.50,17.25,41.13,13.33,0.00,8.44,30.06,0.00,31.11,4.89,17.33,0.00,0.00,3.39
1,142.75,80.00,120.00,79.37,3.16,2.00,2.00,2.21,7.10,30.00,2.50,10.06,44.73,20.00,78.33,11.70,14.75,14.50,17.50,17.08,42.78,16.67,0.00,8.94,31.47,0.00,35.56,5.18,17.51,0.00,0.00,3.42
1,143.75,78.57,116.67,82.67,3.17,2.00,2.00,2.21,5.73,26.67,1.50,6.79,45.48,20.00,78.33,11.78,15.13,14.00,20.00,17.96,43.62,16.67,0.00,9.19,31.25,0.00,35.56,5.06,16.97,0.00,0.00,3.29
1,147.41,81.43,123.33,85.55,3.17,2.00,2.00,2.21,7.59,36.67,2.00,8.52,44.47,20.00,76.67,11.53,15.17,14.00,17.50,18.14,43.90,16.67,0.00,9.09,31.38,0.00,33.33,5.05,17.01,0.00,0.00,3.30
1,145.84,85.71,116.67,83.35,2.86,2.00,1.50,2.21,8.43,40.00,2.50,10.91,46.11,20.00,80.00,12.10,15.67,14.50,17.50,20.21,44.23,20.00,0.00,8.92,32.11,0.00,37.78,5.32,16.81,0.00,0.00,3.20
1,147.11,85.71,120.00,84.65,1.95,0.50,0.50,0.83,8.46,40.00,2.50,10.91,45.95,20.00,78.33,12.36,15.59,14.50,17.50,20.80,44.72,20.00,0.00,9.27,31.74,0.00,40.00,5.35,16.79,0.00,0.00,3.18
1,151.88,90.00,123.33,88.64,2.98,1.50,2.00,2.53,8.46,40.00,2.50,10.91,44.83,20.00,73.33,12.34,15.77,15.00,12.50,22.16,45.53,23.33,0.00,9.66,31.16,0.00,37.78,5.16,16.51,0.00,0.00,3.11
1,150.95,91.43,126.67,85.91,4.39,2.50,3.00,3.55,8.47,40.00,2.50,10.91,45.11,15.00,76.67,12.24,15.61,15.50,15.00,21.88,45.89,23.33,0.00,9.67,30.43,0.00,33.33,4.96,16.59,0.00,0.00,3.06
1,153.12,94.29,130.00,86.92,4.46,2.50,3.00,3.56,8.47,40.00,2.50,10.91,44.57,15.00,78.33,12.05,15.98,15.50,17.50,23.86,45.96,23.33,0.00,9.71,31.46,0.00,35.56,5.11,16.04,0.00,0.00,2.81
1,149.50,94.29,120.00,84.79,4.46,2.50,3.00,3.56,8.47,40.00,2.50,10.91,42.60,10.00,78.33,10.46,15.05,15.00,12.50,20.81,47.26,23.33,0.00,10.03,31.93,0.00,35.56,5.26,16.49,0.00,0.00,2.75
1,150.44,97.14,126.67,86.21,4.46,2.50,3.00,3.56,8.47,40.00,2.50,10.91,41.30,10.00,78.33,9.70,15.26,16.00,12.50,21.27,46.72,23.33,0.00,9.95,33.03,0.00,37.78,5.44,16.61,0.00,0.00,2.85
1,150.10,95.71,123.33,82.55,4.46,2.50,3.00,3.56,8.48,40.00,2.50,10.91,39.91,10.00,73.33,9.39,15.22,16.00,12.50,21.19,48.10,26.67,0.00,10.71,32.89,0.00,35.56,5.47,16.86,0.00,0.00,2.89
1,145.70,92.86,123.33,77.04,4.46,2.50,3.00,3.56,8.48,40.00,2.50,10.91,39.78,10.00,73.33,9.73,14.98,15.50,10.00,20.93,50.06,30.00,0.00,11.43,32.57,0.00,35.56,5.37,17.19,0.00,0.00,2.91
1,149.48,94.29,130.00,81.19,4.44,2.50,3.00,3.56,8.47,40.00,2.50,10.91,41.59,10.00,75.00,10.39,14.93,16.00,10.00,21.06,52.91,36.67,0.00,12.38,32.03,0.00,35.56,5.21,17.06,0.00,0.00,2.81
1,148.05,92.86,130.00,80.00,4.43,2.50,3.00,3.56,8.47,40.00,2.50,10.91,41.61,10.00,76.67,10.26,14.91,16.00,10.00,21.40,51.76,33.33,0.00,11.60,32.71,0.00,37.78,5.34,17.31,0.00,0.00,2.92
1,149.92,92.86,130.00,80.37,4.44,2.50,3.00,3.56,8.48,40.00,2.50,10.91,42.86,10.00,81.67,10.74,14.73,15.00,10.00,21.28,52.10,36.67,0.00,11.81,33.71,0.00,37.78,5.44,17.29,0.00,0.00,2.85
1,149.71,91.43,130.00,83.13,4.44,2.50,3.00,3.56,8.48,40.00,2.50,10.91,43.20,10.00,83.33,10.90,14.53,14.50,10.00,20.99,51.63,36.67,0.00,11.78,33.28,0.00,37.78,5.44,16.59,0.00,0.00,2.73
1,147.68,94.29,130.00,80.50,4.44,2.50,3.00,3.56,8.48,40.00,2.50,10.91,43.94,10.00,83.33,10.95,14.11,13.50,10.00,20.53,52.76,36.67,0.00,12.31,31.96,0.00,33.33,5.18,16.05,0.00,0.00,2.62
1,146.07,91.43,123.33,79.90,4.44,2.50,3.00,3.56,6.99,33.33,1.50,8.29,42.55,10.00,78.33,10.67,14.14,13.50,10.00,20.50,52.53,36.67,0.00,12.35,30.54,0.00,28.89,4.76,16.34,0.00,0.00,2.80
1,147.91,92.86,126.67,80.20,4.42,2.50,3.00,3.56,5.00,23.33,1.00,5.39,41.83,5.00,80.00,10.05,14.19,13.50,10.00,20.52,52.50,36.67,0.00,12.36,29.60,0.00,24.44,4.49,16.22,0.00,0.00,2.78
1,142.80,87.14,110.00,79.23,4.41,2.50,3.00,3.56,6.02,26.67,2.00,7.74,41.52,5.00,76.67,10.05,14.17,14.00,10.00,20.63,52.26,40.00,0.00,12.40,29.21,0.00,24.44,4.14,15.45,0.00,0.00,2.48
1,143.49,88.57,106.67,80.52,4.41,2.50,3.00,3.56,6.93,33.33,2.00,8.75,41.73,5.00,76.67,10.23,13.42,12.50,10.00,19.55,50.21,36.67,0.00,11.49,31.18,0.00,28.89,4.47,15.77,0.00,0.00,2.64
1,144.90,90.00,110.00,82.67,4.41,2.50,3.00,3.56,6.99,33.33,2.00,8.76,40.51,0.00,78.33,9.22,13.28,12.50,10.00,19.38,49.83,36.67,0.00,11.50,30.02,0.00,24.44,4.27,15.70,0.00,0.00,2.63
1,148.48,94.29,113.33,84.28,4.40,2.50,3.00,3.56,6.42,30.00,2.00,8.47,40.65,0.00,81.67,9.11,13.02,11.50,10.00,18.97,49.25,33.33,0.00,11.31,31.08,0.00,26.67,4.57,15.73,0.00,0.00,2.62
1,142.30,92.86,106.67,78.51,4.40,2.50,3.00,3.56,5.62,23.33,2.00,7.90,41.09,0.00,85.00,9.13,12.22,10.00,7.50,17.09,47.99,33.33,0.00,10.79,32.08,0.00,31.11,4.70,15.57,0.00,0.00,2.59
1,144.28,90.00,110.00,81.60,4.41,2.50,3.00,3.56,5.21,23.33,1.50,6.08,40.69,0.00,83.33,8.91,11.52,9.50,7.50,15.01,49.97,40.00,0.00,11.81,30.53,0.00,28.89,4.25,15.63,0.00,0.00,2.65
1,142.26,88.57,110.00,78.92,4.41,2.50,3.00,3.56,7.68,33.33,2.50,9.37,39.93,0.00,83.33,8.46,11.66,10.50,7.50,14.70,48.50,36.67,0.00,11.41,30.25,0.00,24.44,4.14,15.72,0.00,0.00,2.67
1,144.97,91.43,120.00,79.22,2.56,1.50,1.50,1.25,8.54,36.67,3.00,11.88,42.21,0.00,90.00,9.06,10.90,9.00,7.50,12.04,48.46,36.67,0.00,11.48,31.33,0.00,24.44,4.58,15.44,0.00,0.00,2.63
1,146.71,92.86,116.67,81.88,2.93,1.50,2.00,1.48,8.56,36.67,3.00,11.88,41.51,0.00,88.33,8.69,10.57,8.00,5.00,11.60,46.84,33.33,0.00,10.86,31.37,0.00,24.44,4.60,15.25,0.00,0.00,2.63
1,146.42,91.43,113.33,83.92,3.58,2.00,2.50,2.78,8.56,36.67,3.00,11.88,41.27,0.00,85.00,8.83,9.96,7.00,2.50,9.07,51.32,43.33,10.00,13.44,31.44,0.00,26.67,4.78,16.17,0.00,0.00,2.86
1,147.70,90.00,113.33,83.94,5.49,3.50,3.50,4.75,8.56,36.67,3.00,11.88,42.94,0.00,88.33,9.22,9.52,6.50,2.50,8.37,49.30,43.33,10.00,12.71,30.99,0.00,24.44,4.73,16.20,0.00,0.00,2.87
1,144.93,88.57,103.33,83.32,5.60,3.50,3.50,4.77,8.56,36.67,3.00,11.88,43.29,0.00,86.67,9.41,9.33,5.50,2.50,8.11,49.24,46.67,10.00,12.51,30.31,0.00,22.22,4.64,16.09,0.00,0.00,2.78
1,142.20,88.57,106.67,81.53,5.60,3.50,3.50,4.77,8.56,36.67,3.00,11.88,43.86,0.00,88.33,9.51,9.18,5.50,2.50,7.89,52.46,56.67,20.00,14.22,29.60,0.00,24.44,4.30,16.42,0.00,0.00,2.94
1,143.91,90.00,106.67,82.92,5.60,3.50,3.50,4.77,8.56,36.67,3.00,11.88,43.90,0.00,88.33,9.26,8.64,5.00,0.00,6.22,53.62,56.67,25.00,15.00,29.66,0.00,24.44,4.27,16.48,0.00,0.00,2.98
1,138.97,84.29,100.00,80.73,5.60,3.50,3.50,4.77,8.56,36.67,3.00,11.88,44.53,0.00,91.67,9.26,8.35,4.50,0.00,5.73,53.13,53.33,25.00,15.15,29.83,0.00,24.44,4.30,16.87,0.00,0.00,2.97
1,142.00,87.14,100.00,83.61,5.60,3.50,3.50,4.77,8.56,36.67,3.00,11.88,44.42,0.00,90.00,9.32,8.38,4.00,0.00,5.37,53.72,53.33,25.00,14.93,30.75,0.00,24.44,4.43,16.36,0.00,0.00,2.85
1,142.17,88.57,96.67,85.99,5.60,3.50,3.50,4.77,8.55,36.67,3.00,11.88,43.45,0.00,86.67,9.00,8.10,3.50,0.00,4.66,54.14,50.00,25.00,15.14,29.95,0.00,26.67,4.36,16.20,0.00,0.00,2.81
1,144.79,90.00,103.33,86.54,5.60,3.50,3.50,4.77,8.55,36.67,3.00,11.88,44.14,0.00,86.67,9.13,8.10,3.50,0.00,4.72,54.48,53.33,25.00,14.80,30.38,0.00,28.89,4.31,17.01,0.00,0.00,2.98
1,142.56,88.57,100.00,85.21,5.60,3.50,3.50,4.77,8.55,36.67,3.00,11.88,44.48,0.00,88.33,9.30,7.94,3.50,0.00,4.72,57.93,63.33,30.00,16.94,31.25,0.00,28.89,4.43,17.16,0.00,0.00,3.01
1,142.32,88.57,103.33,83.49,5.60,3.50,3.50,4.77,8.55,36.67,3.00,11.88,44.33,0.00,91.67,9.23,8.08,3.50,0.00,4.81,56.53,60.00,30.00,16.31,32.09,0.00,31.11,4.60,16.70,0.00,0.00,2.87
1,142.72,88.57,103.33,87.06,5.60,3.50,3.50,4.77,8.57,36.67,3.00,11.88,44.28,0.00,90.00,9.32,7.77,2.50,0.00,4.66,57.06,60.00,30.00,16.52,31.79,0.00,31.11,4.61,16.21,0.00,0.00,2.63
1,142.81,90.00,100.00,86.47,5.59,3.50,3.50,4.77,7.08,30.00,2.00,9.25,44.48,0.00,91.67,9.28,7.85,2.50,0.00,4.65,58.37,60.00,30.00,16.94,31.96,0.00,28.89,4.68,15.97,0.00,0.00,2.59
1,142.93,90.00,103.33,84.24,5.61,3.50,3.50,4.77,5.71,20.00,2.00,7.66,43.09,0.00,86.67,9.03,7.84,2.50,0.00,4.64,57.90,56.67,30.00,16.67,30.89,0.00,28.89,4.49,15.95,0.00,0.00,2.42
1,143.92,85.71,103.33,86.54,5.61,3.50,3.50,4.77,7.23,30.00,3.00,9.98,41.77,0.00,83.33,8.59,8.29,2.50,0.00,4.90,59.08,63.33,30.00,16.99,31.13,0.00,28.89,4.48,15.64,0.00,0.00,2.30
1,141.48,85.71,103.33,83.25,5.61,3.50,3.50,4.77,7.43,30.00,3.00,10.17,40.93,0.00,81.67,8.41,8.26,2.50,0.00,5.12,59.49,66.67,30.00,17.38,32.02,0.00,28.89,4.98,15.95,0.00,0.00,2.36
1,145.79,87.14,106.67,86.24,5.61,3.50,3.50,4.77,7.43,30.00,3.00,10.17,41.35,0.00,78.33,8.73,8.61,3.00,0.00,5.30,60.31,66.67,30.00,17.46,31.38,0.00,26.67,5.04,16.41,0.00,0.00,2.41
1,143.75,84.29,110.00,85.72,5.61,3.50,3.50,4.77,6.06,23.33,2.50,8.53,41.08,0.00,78.33,8.65,8.91,3.50,0.00,6.23,59.95,63.33,30.00,17.13,30.92,0.00,24.44,4.90,16.47,0.00,0.00,2.44
1,147.86,88.57,113.33,88.70,5.61,3.50,3.50,4.77,4.48,16.67,2.00,6.31,41.52,0.00,78.33,8.66,9.15,3.50,0.00,6.38,60.34,63.33,30.00,17.19,32.25,0.00,28.89,5.31,17.17,0.00,0.00,2.53
1,145.50,84.29,96.67,91.35,5.62,3.50,3.50,4.77,4.35,16.67,1.50,4.95,40.87,0.00,75.00,8.73,9.13,2.50,0.00,6.49,59.64,60.00,30.00,16.86,31.75,0.00,33.33,5.01,17.15,0.00,0.00,2.54
1,144.91,84.29,100.00,89.73,4.46,2.50,2.00,4.01,6.99,26.67,3.00,8.88,38.68,0.00,71.67,8.04,8.99,2.50,0.00,6.30,59.74,60.00,30.00,16.76,30.87,0.00,33.33,4.79,17.39,0.00,0.00,2.58
1,140.69,82.86,100.00,86.00,2.98,1.50,1.00,2.01,7.86,30.00,3.50,11.42,40.52,5.00,76.67,8.33,9.03,3.00,0.00,6.21,55.33,50.00,20.00,14.76,31.82,0.00,35.56,5.24,17.14,0.00,0.00,2.54
1,147.03,85.71,103.33,93.12,3.44,1.50,2.00,2.73,7.89,30.00,3.50,11.43,40.99,10.00,76.67,9.51,9.19,3.50,0.00,6.63,55.48,50.00,20.00,14.15,32.33,0.00,35.56,5.47,17.10,0.00,0.00,2.44
1,146.62,84.29,103.33,92.36,3.69,2.00,2.50,3.10,7.89,30.00,3.50,11.43,38.96,10.00,73.33,8.71,9.07,3.50,0.00,6.61,56.15,50.00,20.00,14.36,32.76,0.00,35.56,5.51,16.77,0.00,0.00,2.43
1,145.78,82.86,100.00,92.56,5.73,3.50,3.50,5.37,7.89,30.00,3.50,11.43,40.43,10.00,76.67,9.29,8.96,3.00,0.00,6.33,52.36,36.67,10.00,12.86,32.14,0.00,33.33,5.50,16.50,0.00,0.00,2.37
1,144.74,84.29,96.67,92.03,5.85,3.50,3.50,5.40,7.89,30.00,3.50,11.43,40.26,10.00,76.67,9.39,8.85,2.50,0.00,6.28,50.87,40.00,5.00,11.72,32.51,0.00,33.33,5.57,16.14,0.00,0.00,2.29
1,141.92,82.86,90.00,88.73,5.85,3.50,3.50,5.40,7.89,30.00,3.50,11.43,38.25,10.00,73.33,8.57,8.89,2.50,0.00,6.20,48.98,36.67,5.00,10.68,33.62,0.00,40.00,5.82,16.04,0.00,0.00,2.41
1,144.13,85.71,96.67,88.87,5.84,3.50,3.50,5.40,7.89,30.00,3.50,11.43,39.06,10.00,80.00,8.57,9.16,3.50,0.00,6.86,47.90,36.67,5.00,10.37,33.85,0.00,42.22,6.19,16.45,0.00,0.00,2.63
1,141.89,87.14,100.00,84.39,5.84,3.50,3.50,5.40,7.90,30.00,3.50,11.43,38.42,10.00,78.33,8.33,9.34,3.50,0.00,7.04,46.99,36.67,5.00,10.21,33.63,0.00,37.78,6.18,16.66,0.00,0.00,2.67
1,142.18,88.57,103.33,83.08,5.84,3.50,3.50,5.40,7.90,30.00,3.50,11.43,39.21,10.00,81.67,8.70,9.36,3.50,0.00,7.14,48.54,36.67,5.00,10.81,32.93,0.00,35.56,6.08,16.58,0.00,0.00,2.63
1,142.48,88.57,106.67,82.43,5.84,3.50,3.50,5.40,7.90,30.00,3.50,11.43,39.91,10.00,83.33,8.95,9.53,3.50,0.00,7.31,47.35,36.67,0.00,10.75,33.59,0.00,42.22,6.28,16.42,0.00,0.00,2.69
1,147.52,91.43,110.00,85.47,5.83,3.50,3.50,5.40,7.90,30.00,3.50,11.43,41.85,15.00,85.00,10.44,10.06,4.50,0.00,7.79,44.86,33.33,0.00,9.17,33.28,0.00,42.22,6.22,17.24,0.00,0.00,2.88
1,144.95,91.43,103.33,79.64,5.83,3.50,3.50,5.40,7.89,30.00,3.50,11.43,41.54,15.00,81.67,10.29,10.16,5.00,0.00,8.03,44.14,33.33,0.00,8.98,34.15,0.00,44.44,6.33,17.48,0.00,0.00,3.10
1,146.67,91.43,106.67,82.37,5.84,3.50,3.50,5.40,7.89,30.00,3.50,11.43,42.75,15.00,83.33,10.65,10.20,5.00,0.00,8.11,45.09,36.67,0.00,9.09,34.37,0.00,44.44,6.32,17.89,0.00,0.00,3.37
1,144.04,90.00,103.33,80.02,5.83,3.50,3.50,5.40,7.89,30.00,3.50,11.43,43.24,15.00,83.33,10.72,10.40,6.00,0.00,8.53,45.51,36.67,0.00,9.17,35.36,0.00,46.67,6.60,18.23,0.00,0.00,3.42
1,142.01,91.43,103.33,77.73,5.83,3.50,3.50,5.40,6.61,23.33,2.50,9.48,44.66,15.00,88.33,11.17,10.75,7.00,0.00,9.13,45.77,36.67,0.00,9.33,35.53,0.00,48.89,6.63,18.01,0.00,0.00,3.46
1,145.86,94.29,106.67,80.40,5.82,3.50,3.50,5.40,6.04,20.00,2.50,8.85,44.69,15.00,85.00,11.16,11.17,8.50,0.00,10.17,43.60,30.00,0.00,8.42,34.62,0.00,48.89,6.31,18.11,0.00,0.00,3.53
1,147.92,94.29,106.67,83.29,5.83,3.50,3.50,5.40,6.88,26.67,2.50,9.47,45.15,15.00,85.00,11.59,11.10,8.50,0.00,10.31,45.71,33.33,0.00,9.82,33.67,0.00,44.44,5.73,18.61,0.00,0.00,3.72
1,144.91,91.43,96.67,81.98,5.84,3.50,3.50,5.40,7.20,26.67,2.50,9.60,45.54,15.00,85.00,11.78,11.23,9.00,2.50,10.10,43.80,30.00,0.00,9.17,34.50,0.00,44.44,5.97,18.47,0.00,0.00,3.67
1,146.72,92.86,96.67,84.80,5.85,3.50,3.50,5.40,7.21,26.67,2.50,9.60,46.11,15.00,86.67,12.16,11.34,10.00,2.50,10.44,44.32,33.33,0.00,9.49,34.22,0.00,46.67,5.81,18.37,0.00,0.00,3.69
1,149.72,97.14,113.33,84.57,5.84,3.50,3.50,5.40,5.63,20.00,2.00,7.42,46.15,15.00,83.33,12.20,11.74,11.50,2.50,11.18,45.40,36.67,0.00,9.95,33.96,0.00,44.44,5.82,18.29,0.00,0.00,3.66
1,149.03,98.57,116.67,83.49,5.85,3.50,3.50,5.40,3.80,13.33,1.00,4.52,48.75,15.00,86.67,13.40,12.20,12.50,5.00,11.73,46.18,36.67,0.00,10.15,35.76,0.00,44.44,6.33,18.51,0.00,0.00,3.70
1,151.51,101.43,120.00,83.92,5.83,3.50,3.50,5.40,3.78,13.33,1.00,3.45,49.75,20.00,83.33,14.44,12.90,13.50,7.50,13.37,47.02,40.00,0.00,10.12,34.46,0.00,40.00,6.08,19.06,0.00,0.00,3.86
1,149.99,100.00,120.00,82.55,3.80,2.50,2.00,3.12,5.23,20.00,2.00,6.12,47.89,10.00,83.33,13.57,12.97,13.00,10.00,13.52,49.63,46.67,5.00,11.75,33.94,0.00,44.44,5.80,18.75,0.00,0.00,3.67
1,147.57,100.00,120.00,79.41,3.08,1.50,1.00,2.31,5.26,20.00,2.00,6.14,49.76,10.00,90.00,13.94,13.37,13.50,10.00,14.63,49.48,46.67,5.00,11.75,33.85,0.00,46.67,5.72,19.14,0.00,0.00,3.97
1,152.71,101.43,123.33,83.97,3.31,1.50,1.50,2.69,5.27,20.00,2.00,6.14,49.78,10.00,91.67,13.75,13.88,14.00,12.50,15.91,52.25,50.00,5.00,12.28,35.23,0.00,48.89,6.15,18.92,0.00,0.00,3.92
1,157.19,102.86,130.00,89.13,3.89,2.50,2.50,3.08,5.29,20.00,2.00,6.14,50.46,10.00,93.33,13.85,14.27,14.00,12.50,16.04,49.80,40.00,5.00,11.41,34.99,0.00,48.89,6.16,18.81,0.00,0.00,3.98
1,159.58,105.71,143.33,89.77,5.93,3.50,3.50,5.40,5.30,20.00,2.00,6.14,51.41,10.00,95.00,14.21,14.76,14.50,15.00,18.06,53.33,46.67,5.00,12.61,34.09,0.00,44.44,5.93,18.63,0.00,0.00,3.86
1,162.71,108.57,146.67,91.49,6.06,3.50,3.50,5.43,5.30,20.00,2.00,6.14,51.71,10.00,93.33,14.39,14.68,14.50,15.00,18.62,54.08,46.67,5.00,12.86,33.37,0.00,42.22,5.62,18.38,0.00,0.00,3.63
1,165.71,112.86,153.33,92.89,6.07,3.50,3.50,5.43,5.29,20.00,2.00,6.14,52.83,10.00,98.33,14.85,14.79,14.50,15.00,18.78,52.76,46.67,5.00,12.63,32.96,0.00,42.22,5.34,18.22,0.00,0.00,3.57
1,160.81,107.14,140.00,89.44,6.07,3.50,3.50,5.43,5.29,20.00,2.00,6.14,53.90,15.00,96.67,15.40,15.97,16.50,20.00,21.74,52.73,46.67,5.00,12.47,34.06,0.00,46.67,5.64,18.41,0.00,0.00,3.59
1,159.94,105.71,136.67,89.29,6.07,3.50,3.50,5.43,5.29,20.00,2.00,6.14,53.76,15.00,98.33,15.50,16.15,17.00,20.00,21.98,50.46,43.33,5.00,12.02,33.99,0.00,40.00,5.72,18.80,0.00,0.00,3.69
1,156.97,102.86,136.67,87.87,6.06,3.50,3.50,5.43,5.29,20.00,2.00,6.14,50.93,10.00,91.67,14.10,16.01,16.00,20.00,22.15,52.93,43.33,5.00,12.54,33.83,0.00,40.00,5.63,17.88,0.00,0.00,3.43
1,158.51,101.43,140.00,91.29,6.06,3.50,3.50,5.43,5.30,20.00,2.00,6.14,52.11,10.00,98.33,14.27,16.41,17.00,20.00,23.28,56.42,53.33,5.00,14.94,34.59,0.00,42.22,6.20,17.95,0.00,0.00,3.41
1,156.99,102.86,136.67,90.89,6.06,3.50,3.50,5.43,5.30,20.00,2.00,6.14,51.98,10.00,96.67,14.23,16.02,16.00,20.00,22.72,58.32,60.00,5.00,15.57,36.85,0.00,48.89,7.02,17.81,0.00,0.00,3.13
1,160.70,101.43,140.00,96.18,6.06,3.50,3.50,5.43,5.30,20.00,2.00,6.14,51.40,10.00,96.67,14.09,15.97,15.50,20.00,22.76,57.44,56.67,5.00,15.49,35.36,0.00,42.22,6.68,17.61,0.00,0.00,3.17
0,161.92,104.29,146.67,95.92,6.06,3.50,3.50,5.43,5.30,20.00,2.00,6.14,50.57,10.00,95.00,14.17,15.74,14.50,20.00,22.00,55.97,53.33,5.00,15.04,34.95,0.00,40.00,6.61,17.05,0.00,0.00,3.04
0,159.69,102.86,143.33,94.00,6.06,3.50,3.50,5.43,5.28,20.00,2.00,6.14,51.13,10.00,96.67,14.29,15.02,13.50,20.00,20.90,56.35,53.33,5.00,15.09,36.25,0.00,42.22,6.81,16.92,0.00,0.00,2.90
0,155.30,101.43,136.67,90.15,6.06,3.50,3.50,5.43,4.65,16.67,2.00,5.63,50.71,10.00,96.67,14.20,14.98,13.00,20.00,20.52,56.71,56.67,10.00,15.02,35.97,0.00,42.22,6.78,16.02,0.00,0.00,2.75
0,154.49,101.43,136.67,88.37,6.04,3.50,3.50,5.43,6.01,20.00,3.00,8.36,51.83,10.00,98.33,14.39,14.57,12.00,17.50,20.02,57.33,56.67,10.00,14.69,35.59,0.00,42.22,6.72,16.24,0.00,0.00,2.72
0,153.88,98.57,140.00,89.63,6.03,3.50,3.50,5.43,7.24,26.67,3.00,9.96,51.93,10.00,98.33,14.27,13.83,10.50,17.50,19.21,57.03,53.33,10.00,14.73,34.66,0.00,37.78,6.48,16.44,0.00,0.00,2.77
0,148.01,94.29,120.00,84.04,6.04,3.50,3.50,5.43,7.38,26.67,3.00,10.06,52.57,10.00,105.00,14.02,13.31,9.50,17.50,18.58,55.80,53.33,10.00,14.55,34.60,0.00,33.33,6.46,16.71,0.00,0.00,2.71
0,142.92,90.00,113.33,81.25,6.04,3.50,3.50,5.43,7.38,26.67,3.00,10.06,51.03,10.00,105.00,13.67,13.31,9.00,17.50,18.51,54.80,50.00,10.00,13.97,33.95,0.00,33.33,6.22,16.30,0.00,0.00,2.66
0,145.73,90.00,116.67,84.83,6.04,3.50,3.50,5.43,5.70,20.00,2.00,7.57,49.63,10.00,106.67,12.48,13.10,8.00,15.00,17.94,55.27,50.00,10.00,14.14,34.46,0.00,40.00,6.22,16.31,0.00,0.00,2.64
0,140.99,85.71,110.00,82.46,6.04,3.50,3.50,5.43,5.38,20.00,1.50,6.56,48.23,5.00,103.33,11.39,12.56,7.00,10.00,16.70,52.13,40.00,5.00,12.67,34.17,0.00,37.78,6.29,16.09,0.00,0.00,2.59
0,141.13,88.57,110.00,80.58,6.04,3.50,3.50,5.43,7.62,26.67,2.50,10.20,46.92,5.00,100.00,10.99,12.32,7.00,10.00,15.73,51.16,40.00,5.00,12.33,33.63,0.00,35.56,6.18,15.67,0.00,0.00,2.52
0,134.43,85.71,103.33,75.67,6.05,3.50,3.50,5.43,9.40,33.33,3.50,13.95,45.49,5.00,93.33,10.69,12.17,7.00,10.00,15.47,49.36,36.67,5.00,11.90,33.61,0.00,35.56,6.05,16.08,0.00,0.00,2.56
0,132.75,88.57,93.33,69.61,6.55,3.00,3.50,6.39,9.41,33.33,3.50,13.96,44.43,5.00,91.67,10.31,11.83,6.50,7.50,14.26,48.08,36.67,5.00,11.62,32.81,0.00,35.56,5.82,17.02,0.00,0.00,2.71
0,130.71,85.71,86.67,69.66,5.49,3.00,3.50,4.83,9.40,33.33,3.50,13.96,46.25,10.00,93.33,11.09,11.16,6.00,5.00,12.36,44.52,30.00,5.00,10.61,32.27,0.00,33.33,5.74,16.98,0.00,0.00,2.68
0,124.92,80.00,73.33,66.01,7.14,4.00,4.50,6.74,9.40,33.33,3.50,13.96,45.54,10.00,91.67,10.89,10.66,5.00,5.00,11.24,43.61,30.00,5.00,10.30,32.24,0.00,33.33,5.69,16.73,0.00,0.00,2.63
0,118.03,74.29,60.00,63.62,7.37,4.00,4.50,6.91,9.41,33.33,3.50,13.96,44.21,10.00,85.00,10.70,10.37,5.00,5.00,10.88,44.03,30.00,5.00,10.31,33.22,0.00,35.56,6.01,17.49,0.00,0.00,2.89
0,118.91,74.29,63.33,64.30,7.38,4.00,4.50,6.91,9.41,33.33,3.50,13.96,41.98,5.00,81.67,9.51,9.38,3.00,0.00,8.47,42.22,26.67,5.00,10.05,32.86,0.00,33.33,5.92,17.51,0.00,0.00,3.05
0,120.11,77.14,63.33,64.21,7.38,4.00,4.50,6.91,9.42,33.33,3.50,13.96,40.78,5.00,81.67,8.87,9.19,2.50,0.00,7.59,41.58,26.67,5.00,9.71,32.19,0.00,35.56,5.70,17.20,0.00,0.00,2.98
0,119.61,80.00,60.00,63.61,7.38,4.00,4.50,6.91,9.42,33.33,3.50,13.96,40.97,5.00,81.67,8.71,9.19,3.00,0.00,7.35,38.73,23.33,5.00,8.48,31.93,0.00,37.78,5.66,17.41,0.00,0.00,3.18
0,118.05,84.29,56.67,60.47,7.38,4.00,4.50,6.91,9.41,33.33,3.50,13.96,40.45,5.00,81.67,8.35,8.61,2.00,0.00,5.91,33.69,13.33,5.00,5.99,30.03,0.00,33.33,4.86,17.14,0.00,0.00,3.12
0,118.39,84.29,60.00,60.26,7.38,4.00,4.50,6.91,9.41,33.33,3.50,13.96,40.27,5.00,80.00,8.47,8.43,2.00,0.00,5.82,31.22,6.67,5.00,4.92,28.28,0.00,26.67,4.18,16.80,0.00,0.00,3.08
0,114.58,82.86,53.33,57.37,7.39,4.00,4.50,6.91,9.40,33.33,3.50,13.96,40.35,5.00,80.00,8.37,8.27,2.00,0.00,5.61,30.96,6.67,5.00,4.97,28.71,0.00,28.89,4.22,16.27,0.00,0.00,2.94
0,109.93,78.57,40.00,53.65,7.40,4.00,4.50,6.91,9.40,33.33,3.50,13.96,40.25,5.00,80.00,8.22,8.46,3.00,0.00,5.87,31.18,6.67,5.00,4.95,29.27,0.00,33.33,4.25,17.01,0.00,0.00,3.03
0,106.92,78.57,40.00,51.06,7.40,4.00,4.50,6.91,9.40,33.33,3.50,13.96,40.45,5.00,80.00,8.22,8.60,3.00,0.00,6.08,31.06,6.67,5.00,5.00,28.84,0.00,33.33,4.21,17.72,0.00,0.00,3.26
0,105.08,78.57,36.67,49.10,7.40,4.00,4.50,6.91,9.40,33.33,3.50,13.96,43.39,10.00,81.67,10.02,8.25,2.50,0.00,5.64,26.89,0.00,0.00,3.74,28.23,0.00,31.11,4.11,18.16,0.00,0.00,3.52
0,106.51,80.00,36.67,49.25,7.41,4.00,4.50,6.91,8.13,30.00,2.50,12.83,41.80,10.00,81.67,9.30,8.68,3.50,0.00,6.22,26.10,0.00,0.00,3.52,27.70,0.00,31.11,3.94,18.50,0.00,0.00,3.64
0,103.03,77.14,33.33,45.15,7.41,4.00,4.50,6.91,6.57,23.33,2.50,9.64,41.29,10.00,80.00,9.14,8.73,3.50,0.00,6.19,24.39,0.00,0.00,3.02,27.88,0.00,31.11,3.98,17.80,0.00,0.00,3.51
0,103.80,77.14,33.33,45.26,7.40,4.00,4.50,6.91,7.05,30.00,2.50,10.00,41.82,10.00,78.33,9.36,8.75,3.50,0.00,6.18,24.28,0.00,0.00,3.04,27.50,0.00,31.11,4.04,17.27,0.00,0.00,3.44
0,103.24,75.71,33.33,44.49,7.40,4.00,4.50,6.91,7.17,30.00,2.50,10.09,41.46,10.00,81.67,9.19,8.65,3.50,0.00,5.88,24.31,0.00,0.00,3.09,28.75,2.22,35.56,4.91,17.41,0.00,0.00,3.53
0,101.81,74.29,30.00,43.86,7.39,4.00,4.50,6.91,7.17,30.00,2.50,10.08,41.67,10.00,80.00,9.31,8.25,3.00,0.00,5.28,25.91,6.67,0.00,3.56,28.47,2.22,33.33,4.80,17.26,0.00,0.00,3.50
0,102.34,74.29,30.00,43.37,7.39,4.00,4.50,6.91,5.80,23.33,2.00,8.42,42.32,10.00,80.00,9.69,8.09,3.00,0.00,5.09,25.78,6.67,0.00,3.52,28.30,2.22,33.33,4.60,17.09,0.00,0.00,3.51
0,100.19,71.43,26.67,41.96,7.40,4.00,4.50,6.91,3.76,16.67,1.00,4.83,42.80,10.00,80.00,9.98,7.81,2.50,0.00,4.85,25.03,6.67,0.00,3.48,27.71,2.22,31.11,4.48,16.55,0.00,0.00,3.27
0,98.12,67.14,26.67,41.43,5.52,3.00,3.50,4.84,3.41,16.67,0.50,3.47,43.81,10.00,83.33,10.28,7.77,2.50,0.00,4.76,23.95,6.67,0.00,3.30,27.16,2.22,26.67,4.16,16.46,0.00,0.00,3.16
0,96.16,65.71,26.67,41.29,3.81,2.00,2.00,3.03,3.40,16.67,0.50,3.45,43.35,10.00,81.67,10.13,7.58,2.50,0.00,4.57,24.12,6.67,0.00,3.37,27.42,2.22,26.67,4.24,15.90,0.00,0.00,3.07
0,95.46,67.14,33.33,38.26,3.23,1.50,2.00,2.50,3.40,16.67,0.50,3.45,42.27,5.00,80.00,10.08,7.50,2.50,0.00,4.48,24.42,6.67,0.00,3.33,28.22,2.22,28.89,4.40,15.24,0.00,0.00,2.88
0,96.12,65.71,33.33,39.11,3.80,2.00,2.50,2.96,3.40,16.67,0.50,3.45,41.49,5.00,81.67,9.34,7.37,2.50,0.00,4.43,24.20,6.67,0.00,3.34,28.94,2.22,31.11,4.64,15.37,0.00,0.00,2.90
0,95.34,62.86,36.67,39.33,4.15,2.50,3.50,3.18,3.40,16.67,0.50,3.45,42.77,5.00,83.33,9.86,7.27,2.50,0.00,4.37,23.26,6.67,0.00,3.08,28.52,2.22,31.11,4.68,14.27,0.00,0.00,2.58
0,95.77,62.86,36.67,38.48,6.07,4.00,4.50,5.32,3.40,16.67,0.50,3.45,43.05,5.00,86.67,9.80,7.26,3.00,0.00,4.33,22.93,6.67,0.00,3.10,28.38,2.22,28.89,4.52,13.92,0.00,0.00,2.42
0,93.60,60.00,36.67,37.62,6.30,4.00,4.50,5.49,3.39,16.67,0.50,3.45,44.07,5.00,85.00,10.37,7.00,3.00,0.00,4.18,22.67,6.67,0.00,3.15,28.09,2.22,26.67,4.56,14.33,0.00,0.00,2.49
0,91.05,55.71,33.33,36.69,6.30,4.00,4.50,5.49,3.38,16.67,0.50,3.45,43.80,5.00,85.00,10.35,6.77,2.50,0.00,3.73,23.00,6.67,0.00,3.16,27.58,2.22,22.22,4.58,14.17,0.00,0.00,2.35
0,88.66,50.00,30.00,36.69,6.30,4.00,4.50,5.49,3.38,16.67,0.50,3.45,43.19,5.00,85.00,10.19,6.63,2.50,0.00,3.64,24.05,6.67,0.00,3.29,27.73,2.22,22.22,4.60,14.60,0.00,0.00,2.42
0,85.93,48.57,26.67,33.75,6.30,4.00,4.50,5.49,3.39,16.67,0.50,3.45,42.99,5.00,83.33,9.99,6.55,2.50,0.00,3.57,24.14,6.67,0.00,3.40,27.13,2.22,22.22,4.58,14.86,0.00,0.00,2.49
0,85.44,48.57,30.00,33.46,6.30,4.00,4.50,5.49,3.39,16.67,0.50,3.45,42.72,5.00,83.33,9.96,6.73,2.50,0.00,3.74,23.82,6.67,0.00,3.24,26.72,2.22,20.00,4.53,15.38,0.00,0.00,2.59
0,86.73,51.43,36.67,33.68,6.29,4.00,4.50,5.49,3.39,16.67,0.50,3.45,42.92,5.00,83.33,10.31,6.39,1.50,0.00,3.37,23.64,6.67,0.00,3.14,26.12,2.22,17.78,4.48,15.04,0.00,0.00,2.58
0,84.44,47.14,33.33,32.86,6.28,4.00,4.50,5.49,3.38,16.67,0.50,3.45,43.33,5.00,83.33,10.65,6.34,1.50,0.00,3.36,22.84,6.67,0.00,2.97,25.52,2.22,15.56,4.43,14.36,0.00,0.00,2.47
0,84.75,48.57,36.67,32.65,6.27,4.00,4.50,5.49,3.38,16.67,0.50,3.45,40.36,0.00,80.00,8.84,6.15,1.50,0.00,3.12,23.49,6.67,0.00,3.06,25.82,2.22,15.56,4.35,13.59,0.00,0.00,2.14
0,82.87,47.14,36.67,31.88,6.27,4.00,4.50,5.49,3.40,16.67,0.50,3.45,39.74,0.00,76.67,8.80,5.74,0.50,0.00,2.69,23.54,6.67,0.00,3.12,25.58,2.22,15.56,4.35,13.92,0.00,0.00,2.36
0,83.61,47.14,36.67,32.46,6.27,4.00,4.50,5.49,3.40,16.67,0.50,3.45,39.55,0.00,80.00,8.63,5.49,0.50,0.00,2.48,23.90,6.67,0.00,3.18,26.06,2.22,15.56,4.39,14.27,0.00,0.00,2.27
0,84.76,48.57,36.67,32.44,6.26,4.00,4.50,5.49,2.77,10.00,0.50,3.18,39.56,0.00,78.33,8.63,5.29,0.50,0.00,2.37,23.94,6.67,0.00,3.16,26.18,2.22,17.78,4.31,14.49,0.00,0.00,2.32
0,84.09,51.43,36.67,32.25,6.26,4.00,4.50,5.49,2.37,6.67,0.50,2.64,38.26,0.00,71.67,8.46,5.19,0.50,0.00,2.36,23.87,6.67,0.00,3.09,24.39,0.00,13.33,3.43,14.05,0.00,0.00,2.18
0,84.07,52.86,40.00,30.43,6.26,4.00,4.50,5.49,3.97,16.67,1.50,4.92,38.42,0.00,70.00,8.64,5.23,0.50,0.00,2.40,21.97,3.33,0.00,2.83,24.55,0.00,13.33,3.46,14.82,0.00,0.00,2.55
0,84.62,54.29,43.33,30.24,6.26,4.00,4.50,5.49,4.24,16.67,1.50,5.20,37.15,0.00,66.67,8.15,5.11,0.50,0.00,2.30,20.21,0.00,0.00,2.15,24.20,0.00,11.11,3.35,14.77,0.00,0.00,2.55
0,84.80,54.29,43.33,30.65,6.25,4.00,4.50,5.49,4.25,16.67,1.50,5.20,36.96,0.00,66.67,8.03,5.01,0.50,0.00,2.15,20.24,0.00,0.00,2.07,25.02,0.00,13.33,3.46,14.86,0.00,0.00,2.65
0,84.31,52.86,43.33,30.08,6.26,4.00,4.50,5.49,2.61,10.00,1.00,2.85,35.60,0.00,60.00,7.72,4.83,0.50,0.00,2.06,20.95,0.00,0.00,2.14,25.35,0.00,13.33,3.50,14.99,0.00,0.00,2.65
0,87.06,52.86,46.67,32.36,6.26,4.00,4.50,5.49,2.39,10.00,1.00,2.57,36.51,0.00,65.00,7.94,4.89,0.50,0.00,2.10,21.33,0.00,0.00,2.28,24.86,0.00,15.56,3.43,15.71,0.00,0.00,2.87
0,89.62,57.14,46.67,34.04,5.79,3.50,3.50,5.34,3.15,20.00,1.00,3.08,34.89,0.00,61.67,7.34,4.70,0.50,0.00,1.95,21.75,0.00,0.00,2.31,24.19,0.00,13.33,3.27,15.45,0.00,0.00,2.80
0,86.58,54.29,43.33,31.99,3.89,2.50,2.50,3.27,5.52,26.67,2.00,6.65,36.46,0.00,65.00,7.79,4.75,0.50,0.00,1.93,20.90,0.00,0.00,2.19,23.89,0.00,11.11,3.07,15.80,0.00,0.00,2.90
0,85.76,57.14,40.00,31.30,2.70,1.50,1.00,2.32,7.30,33.33,3.00,10.39,35.56,0.00,65.00,7.47,4.83,0.50,0.00,1.98,20.70,0.00,0.00,2.20,23.77,0.00,8.89,2.93,16.23,0.00,0.00,3.01
0,84.94,55.71,40.00,30.97,1.55,0.50,0.00,0.57,7.34,33.33,3.00,10.40,35.74,0.00,63.33,7.68,4.77,0.50,0.00,1.95,20.25,0.00,0.00,2.14,23.32,0.00,8.89,2.76,16.20,0.00,0.00,3.05
0,84.57,57.14,36.67,31.36,3.08,1.50,2.00,2.48,7.34,33.33,3.00,10.40,34.89,0.00,65.00,7.14,4.68,0.00,0.00,1.79,20.23,0.00,0.00,1.97,22.89,0.00,8.89,2.60,16.14,0.00,0.00,3.08
0,82.57,55.71,36.67,29.50,3.72,2.50,3.00,3.02,7.34,33.33,3.00,10.40,33.87,0.00,61.67,6.91,4.67,0.00,0.00,1.81,20.88,0.00,0.00,2.11,23.71,0.00,8.89,2.69,15.91,0.00,0.00,3.06
0,81.49,54.29,36.67,28.94,5.76,3.50,4.00,5.32,7.34,33.33,3.00,10.40,34.37,0.00,60.00,7.13,4.67,0.00,0.00,1.84,20.71,0.00,0.00,2.11,24.10,0.00,13.33,2.67,15.45,0.00,0.00,2.90
0,80.14,54.29,36.67,28.10,5.89,3.50,4.00,5.35,7.34,33.33,3.00,10.40,34.83,0.00,65.00,7.20,4.84,0.00,0.00,1.80,20.24,0.00,0.00,1.85,23.83,0.00,13.33,2.56,15.91,0.00,0.00,2.99
0,80.60,54.29,36.67,27.54,5.89,3.50,4.00,5.35,7.34,33.33,3.00,10.40,35.58,0.00,66.67,7.39,4.82,0.00,0.00,1.76,20.47,0.00,0.00,1.94,23.70,0.00,13.33,2.46,15.73,0.00,0.00,2.93
0,75.66,48.57,26.67,24.85,5.89,3.50,4.00,5.35,7.35,33.33,3.00,10.40,34.63,0.00,65.00,7.10,4.74,0.00,0.00,1.73,20.85,0.00,0.00,2.01,24.58,0.00,15.56,2.76,15.91,0.00,0.00,2.97
0,76.82,50.00,26.67,25.15,5.89,3.50,4.00,5.35,7.35,33.33,3.00,10.40,34.86,0.00,68.33,6.89,4.88,0.00,0.00,1.78,20.80,0.00,0.00,1.98,25.23,0.00,17.78,2.81,15.98,0.00,0.00,2.96
0,76.51,47.14,23.33,24.90,5.90,3.50,4.00,5.35,7.35,33.33,3.00,10.40,33.45,0.00,68.33,6.43,4.86,0.00,0.00,1.77,19.79,0.00,0.00,1.80,24.31,0.00,17.78,2.73,16.26,0.00,0.00,2.99
0,75.10,45.71,23.33,24.32,5.89,3.50,4.00,5.35,7.33,33.33,3.00,10.40,33.30,0.00,68.33,6.41,4.72,0.00,0.00,1.66,19.07,0.00,0.00,1.62,24.56,0.00,17.78,2.72,15.36,0.00,0.00,2.69
0,75.48,47.14,26.67,22.72,5.90,3.50,4.00,5.35,7.33,33.33,3.00,10.40,33.71,0.00,68.33,6.50,4.79,0.00,0.00,1.69,18.37,0.00,0.00,1.48,23.93,0.00,17.78,2.68,15.81,0.00,0.00,2.88
0,73.99,47.14,26.67,22.94,5.90,3.50,4.00,5.35,7.33,33.33,3.00,10.40,33.95,0.00,71.67,6.55,4.99,0.00,0.00,1.83,18.56,0.00,0.00,1.50,23.88,0.00,15.56,2.67,15.71,0.00,0.00,2.82
0,73.30,44.29,26.67,22.09,5.91,3.50,4.00,5.35,7.33,33.33,3.00,10.40,35.19,0.00,71.67,7.10,5.01,0.00,0.00,1.82,18.24,0.00,0.00,1.48,24.39,0.00,15.56,2.74,16.08,0.00,0.00,3.04
0,72.05,41.43,26.67,21.81,5.91,3.50,4.00,5.35,6.22,26.67,2.00,9.54,34.39,0.00,71.67,6.92,5.02,0.00,0.00,1.79,18.83,0.00,0.00,1.55,24.29,0.00,13.33,2.65,15.41,0.00,0.00,2.72
0,72.21,40.00,26.67,23.02,5.91,3.50,4.00,5.35,5.47,23.33,2.00,7.84,35.07,0.00,75.00,7.02,4.94,0.00,0.00,1.75,19.34,0.00,0.00,1.60,24.52,0.00,13.33,2.63,15.20,0.00,0.00,2.65
0,70.75,40.00,23.33,22.31,5.91,3.50,4.00,5.35,5.43,23.33,2.00,7.84,34.72,0.00,73.33,6.93,4.93,0.00,0.00,1.76,19.46,0.00,0.00,1.61,23.61,0.00,11.11,2.51,15.29,0.00,0.00,2.61
0,71.01,41.43,23.33,22.82,5.90,3.50,4.00,5.35,7.36,33.33,3.00,11.07,35.53,0.00,78.33,7.12,4.97,0.00,0.00,1.80,19.33,0.00,0.00,1.62,23.27,0.00,11.11,2.48,15.15,0.00,0.00,2.58
0,68.41,44.29,20.00,20.84,5.90,3.50,4.00,5.35,8.70,40.00,3.00,12.81,35.69,0.00,78.33,7.15,5.06,0.00,0.00,1.84,18.62,0.00,0.00,1.55,22.97,0.00,8.89,2.51,14.48,0.00,0.00,2.36
0,65.96,41.43,13.33,19.16,5.90,3.50,4.00,5.35,8.07,30.00,3.00,12.37,35.50,0.00,76.67,7.11,4.96,0.00,0.00,1.80,17.86,0.00,0.00,1.33,23.25,0.00,8.89,2.60,14.54,0.00,0.00,2.37
0,65.29,41.43,10.00,19.21,5.90,3.50,4.00,5.35,6.09,23.33,2.00,9.00,34.79,0.00,71.67,6.98,4.99,0.00,0.00,1.86,17.66,0.00,0.00,1.32,23.77,0.00,8.89,2.70,14.71,0.00,0.00,2.31
0,65.54,38.57,10.00,19.45,5.90,3.50,4.00,5.35,3.96,16.67,1.00,5.05,33.88,0.00,71.67,6.77,5.20,0.00,0.00,2.03,18.18,0.00,0.00,1.36,23.71,0.00,8.89,2.70,14.44,0.00,0.00,2.23
0,66.02,38.57,10.00,19.57,5.90,3.50,4.00,5.35,4.51,20.00,1.00,5.25,34.45,0.00,71.67,7.00,5.06,0.00,0.00,1.98,18.45,0.00,0.00,1.38,23.12,0.00,8.89,2.62,15.00,0.00,0.00,2.43
0,66.01,37.14,10.00,19.46,3.87,2.50,2.50,3.07,6.43,30.00,1.50,7.02,34.40,0.00,68.33,7.15,5.02,0.00,0.00,1.96,17.96,0.00,0.00,1.31,23.26,0.00,8.89,2.63,14.88,0.00,0.00,2.29
0,65.82,37.14,10.00,19.67,2.70,1.00,1.00,2.35,7.28,33.33,2.00,9.40,34.42,0.00,70.00,7.18,5.13,0.00,0.00,1.96,16.97,0.00,0.00,1.20,22.42,0.00,8.89,2.53,14.64,0.00,0.00,2.24
0,67.77,40.00,13.33,20.48,1.14,0.50,0.50,0.31,7.31,33.33,2.00,9.41,33.41,0.00,68.33,7.00,5.16,0.00,0.00,2.04,16.43,0.00,0.00,1.07,22.15,0.00,4.44,2.50,14.47,0.00,0.00,2.17
0,68.52,40.00,13.33,21.02,2.24,1.00,2.00,1.35,7.31,33.33,2.00,9.41,34.01,0.00,66.67,7.31,5.18,0.00,0.00,2.11,16.12,0.00,0.00,1.06,22.02,0.00,4.44,2.54,14.24,0.00,0.00,2.04
0,67.94,37.14,13.33,20.44,3.41,2.00,2.50,2.22,7.31,33.33,2.00,9.41,33.87,0.00,65.00,7.11,5.02,0.00,0.00,1.99,15.49,0.00,0.00,0.98,22.31,0.00,4.44,2.56,14.84,0.00,0.00,2.17
0,73.33,41.43,16.67,24.72,5.23,3.00,3.50,4.00,7.32,33.33,2.00,9.41,34.07,0.00,63.33,7.21,5.13,0.00,0.00,2.08,14.80,0.00,0.00,0.88,21.71,0.00,2.22,2.32,13.94,0.00,0.00,1.97
0,72.46,40.00,16.67,24.90,5.28,3.00,3.50,4.01,7.34,33.33,2.00,9.41,32.99,0.00,61.67,6.80,5.22,0.00,0.00,2.10,14.56,0.00,0.00,0.87,21.45,0.00,0.00,2.29,14.14,0.00,0.00,2.00
0,70.64,38.57,16.67,24.56,5.28,3.00,3.50,4.01,7.34,33.33,2.00,9.41,34.13,0.00,60.00,7.31,5.18,0.00,0.00,2.04,14.48,0.00,0.00,0.88,22.04,0.00,0.00,2.39,13.70,0.00,0.00,1.96
0,71.01,40.00,16.67,24.96,5.29,3.00,3.50,4.01,7.34,33.33,2.00,9.41,35.00,0.00,63.33,7.41,5.22,0.00,0.00,2.07,14.88,0.00,0.00,0.94,21.52,0.00,0.00,2.33,14.22,0.00,0.00,2.02
0,70.45,38.57,16.67,24.51,5.29,3.00,3.50,4.01,7.34,33.33,2.00,9.41,35.37,0.00,63.33,7.63,5.43,0.00,0.00,2.21,15.15,0.00,0.00,0.97,21.70,0.00,0.00,2.33,13.73,0.00,0.00,1.87
0,69.76,37.14,13.33,24.12,5.29,3.00,3.50,4.01,7.34,33.33,2.00,9.41,35.23,0.00,58.33,7.81,5.25,0.00,0.00,2.09,15.19,0.00,0.00,1.02,21.72,0.00,0.00,2.35,13.64,0.00,0.00,1.88
0,72.98,41.43,16.67,26.60,5.28,3.00,3.50,4.01,7.34,33.33,2.00,9.41,33.90,0.00,60.00,6.89,5.32,0.00,0.00,2.15,15.25,0.00,0.00,1.03,21.65,0.00,0.00,2.36,12.91,0.00,0.00,1.63
0,71.99,40.00,13.33,27.01,5.28,3.00,3.50,4.01,7.34,33.33,2.00,9.41,34.41,0.00,61.67,7.13,5.24,0.00,0.00,2.11,14.92,0.00,0.00,1.03,21.01,0.00,0.00,2.20,13.26,0.00,0.00,1.68
0,70.49,37.14,10.00,24.98,5.28,3.00,3.50,4.01,7.34,33.33,2.00,9.41,34.13,0.00,60.00,7.02,5.20,0.00,0.00,2.04,14.11,0.00,0.00,0.93,20.68,0.00,0.00,2.14,13.41,0.00,0.00,1.70
0,68.62,34.29,10.00,23.26,5.27,3.00,3.50,4.01,7.35,33.33,2.00,9.41,34.30,0.00,60.00,6.99,5.12,0.00,0.00,1.99,13.45,0.00,0.00,0.87,20.61,0.00,0.00,2.13,14.07,0.00,0.00,1.92
0,68.15,35.71,10.00,22.89,5.28,3.00,3.50,4.01,5.85,26.67,1.00,6.78,33.62,0.00,58.33,6.86,5.14,0.00,0.00,2.01,13.14,0.00,0.00,0.83,20.22,0.00,0.00,2.06,14.04,0.00,0.00,1.90
0,68.90,34.29,10.00,23.25,5.28,3.00,3.50,4.01,4.15,16.67,1.00,4.57,33.63,0.00,58.33,6.90,5.18,0.00,0.00,2.04,13.20,0.00,0.00,0.85,20.10,0.00,0.00,1.96,14.11,0.00,0.00,1.96
0,68.60,32.86,10.00,23.58,5.27,3.00,3.50,4.01,3.99,16.67,1.00,4.42,33.27,0.00,56.67,6.87,5.19,0.00,0.00,2.06,12.87,0.00,0.00,0.80,20.07,0.00,0.00,1.89,14.38,0.00,0.00,2.06
0,66.10,28.57,10.00,22.03,5.27,3.00,3.50,4.01,6.04,23.33,2.00,7.86,33.15,0.00,55.00,6.75,5.03,0.00,0.00,1.97,13.05,0.00,0.00,0.82,19.83,0.00,0.00,1.84,14.12,0.00,0.00,2.08
0,63.73,25.71,10.00,20.96,5.27,3.00,3.50,4.01,7.03,30.00,2.00,8.76,32.83,0.00,55.00,6.65,4.89,0.00,0.00,1.83,12.61,0.00,0.00,0.80,19.12,0.00,0.00,1.72,14.12,0.00,0.00,2.12
0,64.87,28.57,10.00,21.37,5.27,3.00,3.50,4.01,7.02,30.00,2.00,8.82,33.03,0.00,56.67,6.51,4.86,0.00,0.00,1.78,12.67,0.00,0.00,0.78,19.45,0.00,0.00,1.78,13.72,0.00,0.00,1.94
0,64.61,27.14,10.00,21.07,5.27,3.00,3.50,4.01,6.22,23.33,2.00,8.25,32.27,0.00,55.00,6.27,4.96,0.00,0.00,1.85,12.55,0.00,0.00,0.78,19.49,0.00,0.00,1.75,13.54,0.00,0.00,1.96
0,66.30,28.57,10.00,21.68,5.26,3.00,3.50,4.01,4.12,16.67,1.00,4.67,33.22,0.00,58.33,6.44,4.87,0.00,0.00,1.81,12.14,0.00,0.00,0.76,19.24,0.00,0.00,1.76,13.86,0.00,0.00,1.98
0,65.90,28.57,10.00,21.41,5.26,3.00,3.50,4.01,4.06,16.67,1.00,4.65,34.47,0.00,60.00,7.02,4.80,0.00,0.00,1.76,12.17,0.00,0.00,0.77,18.76,0.00,0.00,1.69,13.71,0.00,0.00,1.93
0,67.49,30.00,10.00,21.05,4.38,2.50,2.00,3.82,5.53,20.00,2.00,7.20,34.37,0.00,58.33,7.10,4.94,0.00,0.00,1.80,12.27,0.00,0.00,0.78,19.04,0.00,0.00,1.62,13.69,0.00,0.00,1.97
0,71.26,32.86,13.33,22.70,2.39,1.00,1.00,1.80,7.93,30.00,3.00,11.39,35.21,0.00,63.33,7.03,5.06,0.00,0.00,1.88,12.36,0.00,0.00,0.76,18.76,0.00,0.00,1.59,13.35,0.00,0.00,1.93
0,65.33,30.00,10.00,18.69,0.68,0.00,0.00,0.13,8.22,30.00,3.00,11.75,34.11,0.00,60.00,6.95,4.94,0.00,0.00,1.82,12.55,0.00,0.00,0.78,17.98,0.00,0.00,1.53,13.30,0.00,0.00,1.89
0,63.49,28.57,10.00,17.93,2.36,1.00,1.00,2.08,8.19,30.00,3.00,11.75,34.79,0.00,61.67,7.07,4.77,0.00,0.00,1.74,12.78,0.00,0.00,0.78,17.67,0.00,0.00,1.47,13.31,0.00,0.00,1.88
0,66.89,32.86,13.33,19.12,3.31,2.00,3.00,2.59,8.19,30.00,3.00,11.75,34.57,0.00,61.67,6.83,4.74,0.00,0.00,1.73,12.62,0.00,0.00,0.74,17.84,0.00,0.00,1.44,13.37,0.00,0.00,1.91
0,67.45,32.86,13.33,18.95,4.84,3.00,4.00,3.50,8.19,30.00,3.00,11.75,35.39,0.00,60.00,7.22,4.69,0.00,0.00,1.67,12.23,0.00,0.00,0.70,18.02,0.00,0.00,1.48,13.57,0.00,0.00,2.00
0,69.89,35.71,16.67,20.73,5.67,3.50,4.50,5.02,8.20,30.00,3.00,11.75,35.88,0.00,63.33,7.77,4.54,0.00,0.00,1.56,11.96,0.00,0.00,0.67,18.15,0.00,0.00,1.53,14.00,0.00,0.00,2.15
0,69.46,37.14,16.67,20.32,5.70,3.50,4.50,5.03,8.19,30.00,3.00,11.75,36.15,0.00,65.00,7.90,4.53,0.00,0.00,1.51,11.83,0.00,0.00,0.62,18.15,0.00,0.00,1.53,14.09,0.00,0.00,2.13
0,70.44,38.57,20.00,20.73,5.70,3.50,4.50,5.03,8.21,30.00,3.00,11.75,36.33,0.00,63.33,7.88,4.60,0.00,0.00,1.55,11.13,0.00,0.00,0.56,17.86,0.00,0.00,1.47,13.90,0.00,0.00,2.11
0,70.06,38.57,20.00,19.73,5.70,3.50,4.50,5.03,8.22,30.00,3.00,11.75,36.54,0.00,68.33,7.71,4.65,0.00,0.00,1.56,11.08,0.00,0.00,0.55,17.40,0.00,0.00,1.44,13.48,0.00,0.00,2.05
0,70.32,40.00,23.33,20.64,5.70,3.50,4.50,5.03,8.22,30.00,3.00,11.75,36.58,0.00,70.00,7.78,4.62,0.00,0.00,1.59,11.04,0.00,0.00,0.55,17.68,0.00,0.00,1.48,13.79,0.00,0.00,2.06
0,70.04,41.43,23.33,20.66,5.70,3.50,4.50,5.03,8.23,30.00,3.00,11.75,36.10,0.00,68.33,7.64,4.60,0.00,0.00,1.59,11.08,0.00,0.00,0.57,18.05,0.00,0.00,1.70,13.22,0.00,0.00,1.87
0,74.85,44.29,26.67,23.53,5.70,3.50,4.50,5.03,8.24,30.00,3.00,11.75,36.48,0.00,68.33,7.77,4.60,0.00,0.00,1.57,11.48,0.00,0.00,0.59,18.09,0.00,0.00,1.74,13.65,0.00,0.00,2.00
0,73.30,41.43,26.67,23.15,5.70,3.50,4.50,5.03,8.24,30.00,3.00,11.75,37.27,0.00,70.00,8.11,4.56,0.00,0.00,1.55,11.84,0.00,0.00,0.64,18.38,0.00,0.00,1.84,13.54,0.00,0.00,1.97
0,73.38,42.86,30.00,23.56,5.70,3.50,4.50,5.03,8.22,30.00,3.00,11.75,37.25,0.00,70.00,7.98,4.50,0.00,0.00,1.53,11.43,0.00,0.00,0.60,18.55,0.00,0.00,1.81,13.28,0.00,0.00,1.89
0,78.17,47.14,30.00,26.61,5.70,3.50,4.50,5.03,6.31,23.33,2.00,8.63,37.87,0.00,73.33,8.08,4.68,0.00,0.00,1.64,11.26,0.00,0.00,0.59,18.23,0.00,0.00,1.76,13.39,0.00,0.00,1.91
0,80.32,51.43,30.00,27.56,5.71,3.50,4.50,5.03,5.30,16.67,2.00,7.47,38.17,0.00,71.67,8.21,4.69,0.00,0.00,1.60,11.20,0.00,0.00,0.56,18.40,0.00,0.00,1.80,13.37,0.00,0.00,1.85
0,79.24,50.00,30.00,27.21,5.70,3.50,4.50,5.03,4.72,13.33,2.00,7.11,36.54,0.00,66.67,7.77,4.81,0.00,0.00,1.64,11.06,0.00,0.00,0.55,18.55,0.00,0.00,1.87,13.29,0.00,0.00,1.84
0,80.21,51.43,30.00,27.70,5.71,3.50,4.50,5.03,4.68,13.33,2.00,7.11,37.86,0.00,71.67,8.04,4.72,0.00,0.00,1.62,11.48,0.00,0.00,0.57,19.43,0.00,0.00,2.10,12.93,0.00,0.00,1.76
0,80.36,51.43,33.33,28.25,5.71,3.50,4.50,5.03,5.49,16.67,2.50,7.58,38.33,0.00,71.67,8.24,4.68,0.00,0.00,1.63,11.91,0.00,0.00,0.60,19.90,0.00,0.00,2.22,13.31,0.00,0.00,1.87
0,79.48,50.00,30.00,28.01,5.70,3.50,4.50,5.03,6.05,20.00,2.50,8.51,37.56,0.00,70.00,7.91,4.73,0.00,0.00,1.75,12.15,0.00,0.00,0.61,20.24,0.00,2.22,2.27,13.68,0.00,0.00,1.97
0,79.08,51.43,30.00,28.56,5.70,3.50,4.50,5.03,5.68,20.00,2.00,8.52,36.56,0.00,70.00,7.55,4.55,0.00,0.00,1.63,12.15,0.00,0.00,0.61,20.41,0.00,2.22,2.26,14.03,0.00,0.00,2.03
0,75.14,48.57,26.67,27.44,5.70,3.50,4.50,5.03,2.83,10.00,0.50,4.00,36.41,0.00,66.67,7.56,4.38,0.00,0.00,1.53,12.23,0.00,0.00,0.65,20.16,0.00,2.22,2.23,13.99,0.00,0.00,2.00
0,76.63,48.57,26.67,28.56,5.70,3.50,4.50,5.03,1.96,6.67,0.50,1.43,35.83,0.00,66.67,7.26,4.30,0.00,0.00,1.46,12.38,0.00,0.00,0.65,20.41,0.00,2.22,2.35,14.47,0.00,0.00,2.09
0,80.01,52.86,26.67,29.40,4.41,3.00,3.50,4.24,3.57,13.33,1.50,3.78,36.73,0.00,66.67,7.52,4.43,0.00,0.00,1.51,12.31,0.00,0.00,0.68,20.62,0.00,2.22,2.46,14.45,0.00,0.00,2.05
0,78.52,50.00,26.67,29.35,3.07,1.50,1.50,2.47,5.61,20.00,2.50,7.47,37.01,0.00,66.67,7.96,4.50,0.00,0.00,1.57,12.59,0.00,0.00,0.70,20.53,0.00,2.22,2.51,14.67,0.00,0.00,2.06
0,78.01,50.00,26.67,29.53,2.62,1.00,1.00,2.34,5.85,20.00,2.50,7.74,37.61,0.00,68.33,8.15,4.63,0.00,0.00,1.72,12.77,0.00,0.00,0.71,20.52,0.00,2.22,2.51,14.70,0.00,0.00,2.01
0,79.16,51.43,26.67,29.33,2.44,1.00,1.00,2.16,5.85,20.00,2.50,7.74,34.11,0.00,61.67,6.59,4.60,0.00,0.00,1.70,12.82,0.00,0.00,0.71,21.06,0.00,4.44,2.55,14.31,0.00,0.00,1.85
0,79.17,50.00,30.00,30.59,2.66,1.00,1.00,2.33,5.85,20.00,2.50,7.74,34.20,0.00,63.33,6.48,4.69,0.00,0.00,1.78,12.89,0.00,0.00,0.72,21.02,0.00,4.44,2.52,15.02,0.00,0.00,2.03
0,73.84,44.29,23.33,28.54,4.15,2.00,2.00,4.06,5.84,20.00,2.50,7.74,33.52,0.00,61.67,6.36,4.66,0.00,0.00,1.80,13.14,0.00,0.00,0.73,21.00,0.00,4.44,2.54,14.96,0.00,0.00,2.04
0,75.47,45.71,23.33,29.28,4.81,2.50,2.00,4.63,5.83,20.00,2.50,7.74,33.63,0.00,56.67,6.39,4.60,0.00,0.00,1.72,13.40,0.00,0.00,0.77,21.20,0.00,4.44,2.57,15.13,0.00,0.00,2.11
0,72.78,44.29,20.00,27.74,4.83,2.50,2.00,4.63,5.83,20.00,2.50,7.74,32.58,0.00,53.33,6.28,4.51,0.00,0.00,1.66,13.61,0.00,0.00,0.81,21.44,0.00,4.44,2.59,15.65,0.00,0.00,2.18
0,73.59,44.29,20.00,27.70,4.83,2.50,2.00,4.63,5.83,20.00,2.50,7.74,32.78,0.00,55.00,6.28,4.86,0.00,0.00,1.86,13.61,0.00,0.00,0.80,21.21,0.00,4.44,2.43,15.51,0.00,0.00,2.18
0,70.77,41.43,16.67,25.79,4.83,2.50,2.00,4.63,5.81,20.00,2.50,7.74,33.03,0.00,53.33,6.38,4.81,0.00,0.00,1.83,13.75,0.00,0.00,0.85,21.69,0.00,4.44,2.49,15.12,0.00,0.00,2.13
0,69.46,41.43,16.67,25.21,4.83,2.50,2.00,4.63,5.81,20.00,2.50,7.74,32.05,0.00,51.67,6.01,4.90,0.00,0.00,1.87,13.36,0.00,0.00,0.83,21.18,0.00,4.44,2.38,15.76,0.00,0.00,2.27
0,68.95,40.00,13.33,24.27,4.83,2.50,2.00,4.63,5.81,20.00,2.50,7.74,31.99,0.00,50.00,6.01,4.80,0.00,0.00,1.83,13.35,0.00,0.00,0.82,20.35,0.00,4.44,2.28,15.92,0.00,0.00,2.39
0,66.56,38.57,13.33,21.88,4.83,2.50,2.00,4.64,5.81,20.00,2.50,7.73,31.75,0.00,51.67,5.87,4.73,0.00,0.00,1.75,13.47,0.00,0.00,0.83,20.14,0.00,4.44,2.26,15.61,0.00,0.00,2.30
0,65.61,35.71,13.33,21.07,4.83,2.50,2.00,4.64,5.81,20.00,2.50,7.73,32.28,0.00,51.67,6.25,4.65,0.00,0.00,1.72,13.38,0.00,0.00,0.84,20.45,0.00,6.67,2.30,16.03,0.00,0.00,2.33
0,66.66,35.71,16.67,21.55,4.83,2.50,2.00,4.63,5.79,20.00,2.50,7.73,32.03,0.00,50.00,6.25,4.57,0.00,0.00,1.74,13.32,0.00,0.00,0.84,20.33,0.00,6.67,2.23,15.94,0.00,0.00,2.32
0,65.63,35.71,16.67,21.40,4.82,2.50,2.00,4.64,5.79,20.00,2.50,7.73,30.98,0.00,45.00,5.96,4.53,0.00,0.00,1.71,13.51,0.00,0.00,0.86,19.67,0.00,6.67,2.06,16.17,0.00,0.00,2.39
0,65.36,37.14,13.33,21.26,4.83,2.50,2.00,4.64,5.79,20.00,2.50,7.73,30.64,0.00,43.33,5.86,4.58,0.00,0.00,1.72,13.48,0.00,0.00,0.87,19.98,0.00,6.67,2.14,16.22,0.00,0.00,2.55
0,66.01,38.57,13.33,20.99,4.85,2.50,2.00,4.64,4.46,13.33,2.00,6.34,30.26,0.00,46.67,5.67,4.57,0.00,0.00,1.61,13.25,0.00,0.00,0.87,19.34,0.00,4.44,2.00,16.25,0.00,0.00,2.68
0,66.07,38.57,13.33,20.19,4.86,2.50,2.00,4.64,5.67,20.00,2.50,7.51,29.79,0.00,43.33,5.56,4.48,0.00,0.00,1.54,13.02,0.00,0.00,0.86,18.87,0.00,4.44,1.96,15.90,0.00,0.00,2.58
0,66.01,37.14,13.33,19.69,4.86,2.50,2.00,4.64,6.54,23.33,3.00,9.83,29.03,0.00,45.00,5.34,4.52,0.00,0.00,1.54,12.98,0.00,0.00,0.82,19.08,0.00,4.44,1.95,15.33,0.00,0.00,2.42
0,64.80,35.71,13.33,18.75,4.88,2.50,2.00,4.64,6.59,23.33,3.00,9.83,30.43,0.00,46.67,5.87,4.65,0.00,0.00,1.65,12.80,0.00,0.00,0.81,18.96,0.00,4.44,1.98,15.27,0.00,0.00,2.45
0,62.43,32.86,13.33,17.69,4.88,2.50,2.00,4.64,5.45,20.00,2.00,8.92,29.76,0.00,45.00,5.75,4.59,0.00,0.00,1.65,12.69,0.00,0.00,0.80,19.08,0.00,4.44,2.00,15.12,0.00,0.00,2.41
0,61.60,31.43,10.00,16.95,4.88,2.50,2.00,4.64,3.37,13.33,1.00,4.45,29.27,0.00,46.67,5.51,4.57,0.00,0.00,1.70,12.54,0.00,0.00,0.79,18.88,0.00,4.44,1.87,15.46,0.00,0.00,2.49
0,60.96,31.43,10.00,16.70,4.88,2.50,2.00,4.64,3.09,13.33,1.00,3.68,28.40,0.00,45.00,4.96,4.47,0.00,0.00,1.53,12.39,0.00,0.00,0.79,19.05,0.00,4.44,1.92,15.60,0.00,0.00,2.55
0,59.20,30.00,6.67,15.65,3.40,2.00,1.00,2.89,4.79,20.00,2.00,6.24,29.18,0.00,46.67,5.06,4.54,0.00,0.00,1.54,12.24,0.00,0.00,0.78,18.62,0.00,2.22,1.84,15.22,0.00,0.00,2.49
0,57.93,30.00,3.33,14.19,2.69,1.50,1.00,2.32,5.00,20.00,2.00,6.44,29.13,0.00,45.00,5.11,4.50,0.00,0.00,1.57,12.14,0.00,0.00,0.75,18.48,0.00,2.22,1.82,14.57,0.00,0.00,2.33
0,58.40,30.00,3.33,14.20,2.27,1.00,0.50,2.32,5.01,20.00,2.00,6.44,30.29,0.00,46.67,5.39,4.39,0.00,0.00,1.49,12.20,0.00,0.00,0.76,19.16,0.00,2.22,1.89,14.70,0.00,0.00,2.36
0,56.74,28.57,3.33,13.43,2.19,1.00,1.00,1.50,5.01,20.00,2.00,6.44,31.49,0.00,50.00,5.95,4.41,0.00,0.00,1.50,12.11,0.00,0.00,0.79,19.95,0.00,6.67,2.14,14.73,0.00,0.00,2.40
0,58.55,30.00,3.33,13.66,2.83,1.50,2.00,1.74,5.01,20.00,2.00,6.44,32.51,0.00,51.67,6.16,4.50,0.00,0.00,1.55,11.66,0.00,0.00,0.69,20.01,0.00,6.67,2.14,14.65,0.00,0.00,2.34
0,58.49,30.00,3.33,14.12,4.88,2.50,3.50,3.93,5.01,20.00,2.00,6.44,32.90,0.00,51.67,6.55,4.30,0.00,0.00,1.46,11.77,0.00,0.00,0.70,20.07,0.00,6.67,2.18,14.23,0.00,0.00,2.32
0,57.90,28.57,3.33,13.70,5.15,2.50,3.50,4.17,5.00,20.00,2.00,6.44,32.72,0.00,53.33,6.39,4.27,0.00,0.00,1.45,11.53,0.00,0.00,0.64,19.67,0.00,6.67,2.07,14.19,0.00,0.00,2.23
0,59.69,30.00,3.33,14.33,5.16,2.50,3.50,4.17,5.00,20.00,2.00,6.44,33.21,0.00,55.00,6.51,4.27,0.00,0.00,1.43,11.36,0.00,0.00,0.62,19.86,0.00,6.67,2.12,13.88,0.00,0.00,2.17
0,59.27,30.00,3.33,14.28,5.16,2.50,3.50,4.17,5.00,20.00,2.00,6.44,32.94,0.00,55.00,6.39,4.24,0.00,0.00,1.42,11.37,0.00,0.00,0.61,19.94,0.00,6.67,2.13,13.99,0.00,0.00,2.18
0,57.65,27.14,3.33,13.81,5.15,2.50,3.50,4.17,5.00,20.00,2.00,6.44,34.33,0.00,53.33,7.00,4.24,0.00,0.00,1.41,11.86,0.00,0.00,0.63,20.91,0.00,8.89,2.43,13.88,0.00,0.00,2.17
0,56.79,25.71,3.33,13.48,5.16,2.50,3.50,4.17,5.00,20.00,2.00,6.44,34.48,0.00,55.00,6.97,4.36,0.00,0.00,1.43,11.89,0.00,0.00,0.63,20.91,0.00,6.67,2.46,14.00,0.00,0.00,2.17
0,56.60,25.71,0.00,13.40,5.16,2.50,3.50,4.17,5.00,20.00,2.00,6.44,34.69,0.00,58.33,6.98,4.41,0.00,0.00,1.49,11.83,0.00,0.00,0.61,21.65,0.00,6.67,2.58,14.25,0.00,0.00,2.23
0,58.52,24.29,3.33,14.00,5.16,2.50,3.50,4.17,5.00,20.00,2.00,6.44,35.30,0.00,61.67,7.05,4.47,0.00,0.00,1.57,11.56,0.00,0.00,0.61,21.69,0.00,6.67,2.60,14.24,0.00,0.00,2.22
0,57.65,22.86,3.33,14.46,5.16,2.50,3.50,4.17,5.00,20.00,2.00,6.44,35.08,0.00,61.67,6.93,4.50,0.00,0.00,1.60,11.11,0.00,0.00,0.57,21.30,0.00,6.67,2.46,13.82,0.00,0.00,2.12
0,57.27,20.00,3.33,14.22,5.14,2.50,3.50,4.17,5.01,20.00,2.00,6.44,33.77,0.00,56.67,6.71,4.49,0.00,0.00,1.58,11.06,0.00,0.00,0.54,20.78,0.00,6.67,2.41,13.91,0.00,0.00,1.88
0,58.95,22.86,3.33,14.67,5.13,2.50,3.50,4.17,5.01,20.00,2.00,6.44,35.65,0.00,61.67,7.26,4.45,0.00,0.00,1.58,11.23,0.00,0.00,0.55,21.44,0.00,8.89,2.55,14.30,0.00,0.00,1.90
0,57.08,20.00,3.33,14.15,5.13,2.50,3.50,4.17,2.88,10.00,1.00,2.96,35.54,0.00,60.00,7.25,4.48,0.00,0.00,1.62,11.23,0.00,0.00,0.57,21.88,0.00,8.89,2.62,14.37,0.00,0.00,1.91
0,58.27,22.86,3.33,14.12,5.11,2.50,3.50,4.17,2.77,10.00,1.00,2.93,34.76,0.00,56.67,6.79,4.35,0.00,0.00,1.54,11.23,0.00,0.00,0.55,21.53,0.00,8.89,2.50,14.54,0.00,0.00,1.97
0,59.92,25.71,3.33,14.65,5.11,2.50,3.50,4.17,4.26,13.33,2.00,5.56,35.54,0.00,61.67,7.10,4.49,0.00,0.00,1.58,11.39,0.00,0.00,0.57,21.79,0.00,8.89,2.45,14.70,0.00,0.00,2.03
0,59.78,25.71,3.33,15.20,5.11,2.50,3.50,4.17,5.24,20.00,2.00,6.66,36.07,0.00,61.67,7.25,4.64,0.00,0.00,1.74,10.93,0.00,0.00,0.54,22.50,0.00,8.89,2.53,14.01,0.00,0.00,1.94
0,61.46,28.57,3.33,15.42,5.11,2.50,3.50,4.17,5.04,16.67,2.00,6.63,36.72,0.00,66.67,7.25,4.62,0.00,0.00,1.72,11.30,0.00,0.00,0.56,22.50,0.00,8.89,2.47,14.01,0.00,0.00,1.96
0,61.16,28.57,3.33,14.95,5.11,2.50,3.50,4.17,3.58,13.33,1.00,4.44,36.19,0.00,65.00,7.32,4.52,0.00,0.00,1.68,11.08,0.00,0.00,0.55,21.94,0.00,8.89,2.40,13.95,0.00,0.00,1.88
0,63.24,30.00,3.33,16.51,5.11,2.50,3.50,4.17,2.99,10.00,1.00,3.77,36.35,0.00,65.00,7.40,4.42,0.00,0.00,1.59,11.43,0.00,0.00,0.59,22.88,0.00,11.11,2.57,13.71,0.00,0.00,1.86
0,61.30,27.14,3.33,16.07,5.10,2.50,3.50,4.16,3.58,13.33,1.00,4.09,35.83,0.00,65.00,7.22,4.49,0.00,0.00,1.77,11.60,0.00,0.00,0.61,23.02,0.00,13.33,2.59,13.66,0.00,0.00,1.82
0,61.73,27.14,3.33,16.30,3.58,1.50,2.50,2.82,5.64,20.00,2.00,7.63,34.72,0.00,60.00,7.13,4.54,0.00,0.00,1.81,11.47,0.00,0.00,0.60,21.64,0.00,8.89,2.33,13.32,0.00,0.00,1.74
0,62.09,28.57,3.33,16.64,3.14,1.50,2.00,2.64,5.77,20.00,2.00,7.68,34.29,0.00,56.67,6.99,4.59,0.00,0.00,1.90,11.80,0.00,0.00,0.61,21.64,0.00,8.89,2.30,13.34,0.00,0.00,1.77
0,60.42,27.14,3.33,16.24,3.36,1.50,1.00,3.87,5.78,20.00,2.00,7.68,32.95,0.00,60.00,6.29,4.58,0.00,0.00,1.92,12.14,0.00,0.00,0.64,21.38,0.00,8.89,2.22,13.67,0.00,0.00,1.85
0,61.75,28.57,3.33,17.01,3.29,2.00,2.00,2.67,5.79,20.00,2.00,7.68,33.01,0.00,60.00,6.33,4.68,0.00,0.00,1.92,12.17,0.00,0.00,0.66,21.14,0.00,8.89,2.21,13.86,0.00,0.00,1.92
0,58.58,25.71,3.33,16.67,4.55,3.50,4.00,3.35,5.79,20.00,2.00,7.68,32.44,0.00,58.33,6.02,4.59,0.00,0.00,1.86,12.11,0.00,0.00,0.67,21.34,0.00,8.89,2.22,13.83,0.00,0.00,1.90
0,59.70,25.71,3.33,16.77,6.54,4.50,5.50,5.60,5.80,20.00,2.00,7.68,32.48,0.00,56.67,6.16,4.67,0.00,0.00,1.92,12.22,0.00,0.00,0.69,22.08,0.00,8.89,2.34,13.22,0.00,0.00,1.70
0,61.57,30.00,3.33,17.39,6.77,4.50,5.50,5.77,5.79,20.00,2.00,7.68,31.50,0.00,55.00,5.78,4.83,0.00,0.00,2.04,11.85,0.00,0.00,0.68,21.23,0.00,6.67,2.07,13.40,0.00,0.00,1.78
0,61.44,30.00,3.33,17.22,6.78,4.50,5.50,5.77,5.80,20.00,2.00,7.68,30.97,0.00,50.00,5.66,4.89,0.00,0.00,2.11,12.23,0.00,0.00,0.73,21.47,0.00,6.67,2.11,13.60,0.00,0.00,1.84
0,61.25,28.57,3.33,17.40,6.78,4.50,5.50,5.77,5.80,20.00,2.00,7.68,30.63,0.00,48.33,5.64,4.79,0.00,0.00,2.07,12.31,0.00,0.00,0.75,21.06,0.00,6.67,2.06,12.99,0.00,0.00,1.78
0,59.23,28.57,0.00,16.54,6.79,4.50,5.50,5.77,5.81,20.00,2.00,7.68,29.77,0.00,45.00,5.38,4.77,0.00,0.00,2.04,12.22,0.00,0.00,0.74,21.33,0.00,6.67,2.03,13.03,0.00,0.00,1.80
0,60.22,30.00,0.00,16.59,6.79,4.50,5.50,5.77,5.81,20.00,2.00,7.68,30.10,0.00,43.33,5.51,4.76,0.00,0.00,1.99,12.26,0.00,0.00,0.76,20.91,0.00,6.67,1.98,13.68,0.00,0.00,1.92
0,63.25,34.29,3.33,17.66,6.79,4.50,5.50,5.77,5.81,20.00,2.00,7.68,31.51,0.00,46.67,5.95,4.78,0.00,0.00,1.99,12.57,0.00,0.00,0.79,20.85,0.00,6.67,1.95,13.22,0.00,0.00,1.88
0,63.29,34.29,3.33,18.35,6.79,4.50,5.50,5.77,5.81,20.00,2.00,7.68,30.53,0.00,43.33,5.63,4.91,0.00,0.00,2.11,12.93,0.00,0.00,0.84,20.81,0.00,4.44,1.92,12.94,0.00,0.00,1.83
0,62.66,32.86,3.33,17.83,6.79,4.50,5.50,5.77,5.84,20.00,2.00,7.68,31.54,0.00,46.67,5.98,4.90,0.00,0.00,2.10,12.73,0.00,0.00,0.81,20.62,0.00,4.44,1.86,12.70,0.00,0.00,1.89
0,61.10,30.00,3.33,17.63,6.79,4.50,5.50,5.77,5.84,20.00,2.00,7.68,31.44,0.00,48.33,5.98,4.93,0.00,0.00,2.09,12.82,0.00,0.00,0.86,21.25,0.00,4.44,1.96,12.79,0.00,0.00,1.97
0,60.02,28.57,3.33,17.28,6.79,4.50,5.50,5.77,5.43,20.00,1.50,7.68,30.11,0.00,45.00,5.52,4.73,0.00,0.00,1.98,12.82,0.00,0.00,0.84,21.10,0.00,4.44,1.96,12.43,0.00,0.00,1.96
0,62.00,30.00,6.67,18.21,6.79,4.50,5.50,5.77,3.56,10.00,1.00,4.16,31.38,0.00,46.67,6.06,4.72,0.00,0.00,1.89,13.18,0.00,0.00,0.87,21.07,0.00,6.67,1.99,12.77,0.00,0.00,2.02
0,62.55,30.00,6.67,18.11,6.80,4.50,5.50,5.77,3.31,10.00,1.00,3.93,30.81,0.00,43.33,5.98,4.84,0.00,0.00,1.97,13.51,0.00,0.00,0.90,20.69,0.00,6.67,1.95,13.08,0.00,0.00,2.05
0,66.05,32.86,10.00,20.65,6.80,4.50,5.50,5.77,5.15,20.00,2.00,6.86,30.18,0.00,41.67,5.64,5.07,0.00,0.00,2.14,13.86,0.00,0.00,0.96,21.22,0.00,8.89,2.05,13.06,0.00,0.00,2.02
0,64.15,31.43,10.00,19.23,6.80,4.50,5.50,5.77,5.98,26.67,2.00,7.69,30.44,0.00,43.33,5.57,5.14,0.00,0.00,2.15,13.88,0.00,0.00,0.97,20.77,0.00,6.67,2.02,13.26,0.00,0.00,2.04
0,65.69,32.86,13.33,19.37,6.80,4.50,5.50,5.77,5.59,23.33,2.00,7.46,30.33,0.00,41.67,5.60,5.16,0.00,0.00,2.12,14.20,0.00,0.00,1.00,20.61,0.00,4.44,2.02,13.46,0.00,0.00,2.06
0,67.05,35.71,13.33,20.33,6.80,4.50,5.50,5.77,3.54,16.67,1.00,4.17,29.37,0.00,41.67,5.27,5.33,0.00,0.00,2.17,13.88,0.00,0.00,0.94,20.41,0.00,4.44,1.98,13.85,0.00,0.00,2.19
0,66.00,34.29,13.33,20.39,6.81,4.50,5.50,5.77,3.26,16.67,1.00,3.81,29.92,0.00,45.00,5.21,5.32,0.00,0.00,2.32,13.91,0.00,0.00,0.97,20.58,0.00,4.44,1.99,13.72,0.00,0.00,2.18
0,67.36,37.14,13.33,20.68,4.93,3.50,4.50,3.70,4.33,23.33,1.00,4.77,30.54,0.00,45.00,5.30,5.70,0.50,0.00,3.07,13.66,0.00,0.00,0.96,20.26,0.00,4.44,1.97,14.31,0.00,0.00,2.23
0,70.25,40.00,13.33,23.53,4.13,2.50,3.50,3.14,6.69,30.00,2.00,8.39,30.96,0.00,48.33,5.55,5.75,0.50,0.00,3.16,13.67,0.00,0.00,0.92,20.70,0.00,4.44,2.00,14.49,0.00,0.00,2.25
0,73.91,42.86,20.00,24.41,2.93,1.50,1.50,2.64,8.48,36.67,3.00,12.13,31.29,0.00,48.33,5.82,6.62,1.50,0.00,4.66,14.92,0.00,0.00,1.14,20.90,0.00,4.44,2.06,14.43,0.00,0.00,2.22
0,75.46,44.29,20.00,24.69,3.54,1.50,1.50,2.91,8.51,36.67,3.00,12.15,32.16,0.00,51.67,6.35,7.06,2.50,0.00,5.40,15.72,0.00,0.00,1.28,20.63,0.00,4.44,2.01,14.40,0.00,0.00,2.26
0,77.45,44.29,23.33,27.31,4.57,2.00,2.50,4.60,8.51,36.67,3.00,12.15,31.95,0.00,51.67,6.25,7.35,3.50,0.00,6.15,17.35,0.00,0.00,1.60,20.97,0.00,4.44,2.09,14.21,0.00,0.00,2.18
0,83.45,48.57,30.00,32.09,6.28,3.50,3.50,6.26,8.50,36.67,3.00,12.15,35.56,0.00,60.00,7.51,8.09,5.00,2.50,7.29,18.72,3.33,0.00,2.06,20.82,0.00,4.44,2.00,14.17,0.00,0.00,2.11
0,85.47,51.43,30.00,32.76,6.46,3.50,3.50,6.39,8.50,36.67,3.00,12.15,39.04,10.00,65.00,9.61,9.47,6.50,5.00,11.90,20.59,6.67,0.00,2.57,21.87,0.00,8.89,2.44,14.61,0.00,0.00,2.17
0,92.65,54.29,40.00,41.14,6.47,3.50,3.50,6.39,8.48,36.67,3.00,12.15,41.24,10.00,68.33,11.29,11.39,9.00,12.50,18.15,23.77,10.00,0.00,4.03,22.52,0.00,11.11,2.55,15.85,3.33,0.00,2.33
1,97.19,55.71,46.67,46.86,6.47,3.50,3.50,6.39,8.49,36.67,3.00,12.15,47.92,30.00,73.33,16.45,13.26,10.50,17.50,26.97,27.72,16.67,0.00,5.72,24.59,0.00,15.56,3.59,16.94,3.33,0.00,2.95
1,99.37,57.14,46.67,48.77,6.49,3.50,3.50,6.39,8.49,36.67,3.00,12.15,50.31,35.00,75.00,18.72,13.96,11.50,22.50,27.95,33.26,26.67,5.00,9.30,25.69,0.00,15.56,3.87,17.17,3.33,0.00,2.99
1,101.54,55.71,50.00,55.53,6.50,3.50,3.50,6.39,8.49,36.67,3.00,12.15,51.78,35.00,78.33,19.52,14.40,12.00,22.50,29.85,36.32,33.33,5.00,10.34,28.78,2.22,20.00,4.77,18.97,10.00,0.00,4.45
1,107.33,58.57,56.67,60.58,6.50,3.50,3.50,6.39,8.46,36.67,3.00,12.15,56.98,45.00,81.67,23.46,16.37,14.00,25.00,35.37,41.93,40.00,10.00,13.66,31.26,2.22,24.44,7.74,19.81,10.00,0.00,4.72
1,114.76,62.86,60.00,68.39,6.49,3.50,3.50,6.39,8.47,36.67,3.00,12.15,62.78,55.00,86.67,26.74,17.98,15.00,35.00,39.86,43.78,43.33,10.00,14.37,32.12,2.22,28.89,7.97,21.75,16.67,0.00,6.25
1,116.51,65.71,63.33,69.73,6.50,3.50,3.50,6.39,8.46,36.67,3.00,12.14,67.17,60.00,91.67,30.02,19.58,16.00,40.00,44.05,46.09,46.67,10.00,15.17,33.14,2.22,28.89,8.27,21.92,16.67,0.00,6.66
1,123.66,68.57,70.00,75.56,6.50,3.50,3.50,6.39,8.45,36.67,3.00,12.14,67.98,60.00,88.33,30.61,21.67,17.50,47.50,53.65,49.86,56.67,15.00,16.95,34.52,2.22,33.33,8.77,23.14,16.67,0.00,7.18
1,128.64,72.86,73.33,81.19,6.50,3.50,3.50,6.39,8.46,36.67,3.00,12.14,71.59,70.00,95.00,33.22,23.27,19.50,55.00,60.27,53.41,66.67,15.00,18.67,35.32,2.22,35.56,9.01,22.87,16.67,0.00,7.14
1,128.75,74.29,76.67,80.75,6.49,3.50,3.50,6.39,7.16,30.00,2.00,10.98,79.06,85.00,100.00,40.96,24.99,21.50,62.50,66.25,58.31,80.00,20.00,20.85,36.86,2.22,35.56,9.24,24.24,16.67,0.00,7.64
1,132.49,75.71,76.67,86.15,6.50,3.50,3.50,6.39,7.46,30.00,3.00,11.11,82.98,90.00,103.33,44.97,26.70,24.00,67.50,70.58,59.57,83.33,20.00,21.49,39.56,2.22,42.22,10.93,24.74,16.67,0.00,7.92
1,137.91,80.00,80.00,90.99,6.49,3.50,3.50,6.39,8.41,36.67,3.00,12.33,88.95,100.00,110.00,51.84,28.56,25.50,77.50,76.29,62.67,86.67,20.00,22.31,41.97,4.44,46.67,12.25,26.07,20.00,0.00,8.97
1,141.12,82.86,90.00,91.93,6.49,3.50,3.50,6.39,8.53,36.67,3.00,12.39,92.92,110.00,113.33,54.62,30.02,26.50,82.50,82.28,67.19,90.00,20.00,26.83,44.24,4.44,55.56,13.00,27.16,20.00,0.00,9.37
1,147.99,87.14,96.67,94.91,6.49,3.50,3.50,6.39,8.53,36.67,3.00,12.39,96.84,115.00,113.33,58.53,31.34,28.00,82.50,88.53,74.07,100.00,20.00,31.62,46.47,4.44,60.00,14.43,28.60,23.33,0.00,10.38
1,152.04,90.00,103.33,98.07,6.49,3.50,3.50,6.39,7.63,30.00,3.00,11.53,101.16,120.00,120.00,63.42,32.51,28.50,87.50,93.95,75.95,106.67,20.00,32.13,48.12,4.44,60.00,15.05,29.58,26.67,0.00,10.78
1,157.17,91.43,113.33,101.22,6.49,3.50,3.50,6.39,7.57,30.00,3.00,11.32,108.40,130.00,118.33,71.89,34.14,30.50,95.00,98.70,77.88,110.00,20.00,32.49,49.97,4.44,64.44,15.97,30.17,26.67,0.00,11.25
1,160.03,91.43,116.67,105.09,6.50,3.50,3.50,6.39,5.68,23.33,2.00,7.62,110.24,135.00,120.00,72.89,35.14,31.50,102.50,103.43,81.29,113.33,25.00,33.93,51.07,4.44,64.44,16.77,31.00,26.67,0.00,11.45
1,162.41,94.29,116.67,106.06,6.50,3.50,3.50,6.38,5.55,23.33,2.00,7.57,113.89,140.00,121.67,77.26,36.92,32.00,110.00,112.38,85.27,120.00,25.00,35.45,55.90,11.11,71.11,19.89,32.30,26.67,0.00,12.17
1,165.93,97.14,123.33,109.59,4.86,2.50,2.00,4.20,5.55,23.33,2.00,7.57,116.90,150.00,126.67,78.55,37.76,31.50,115.00,115.89,87.26,123.33,25.00,36.42,57.57,11.11,75.56,20.43,33.01,26.67,0.00,12.40
1,163.61,94.29,120.00,110.37,4.82,2.50,2.00,4.31,5.55,23.33,2.00,7.57,117.53,160.00,128.33,78.89,37.62,31.00,112.50,115.79,87.29,120.00,25.00,36.57,59.16,13.33,80.00,20.97,33.58,26.67,0.00,12.52
1,165.99,94.29,126.67,112.11,4.86,2.50,2.00,4.38,5.55,23.33,2.00,7.57,114.95,155.00,125.00,78.49,37.29,29.50,112.50,115.06,92.56,126.67,35.00,38.95,57.63,13.33,77.78,20.63,33.49,26.67,0.00,12.50
1,166.33,94.29,126.67,112.71,4.86,2.50,2.00,4.38,5.55,23.33,2.00,7.57,119.10,165.00,128.33,81.88,36.25,29.50,107.50,110.56,94.99,133.33,40.00,41.10,58.57,15.56,77.78,20.64,32.98,26.67,0.00,12.44
1,161.95,92.86,123.33,109.30,4.85,2.50,2.00,4.38,5.55,23.33,2.00,7.57,113.60,145.00,125.00,77.20,35.93,29.50,110.00,107.45,94.53,133.33,40.00,39.78,57.92,15.56,77.78,20.85,32.09,23.33,0.00,11.97
1,163.87,94.29,126.67,107.45,4.85,2.50,2.00,4.38,5.55,23.33,2.00,7.57,110.61,140.00,123.33,74.41,36.01,29.00,107.50,109.09,92.02,130.00,35.00,37.57,58.31,15.56,80.00,20.68,31.98,23.33,0.00,11.99
1,161.52,94.29,123.33,103.30,4.85,2.50,2.00,4.38,5.57,23.33,2.00,7.57,111.03,140.00,121.67,75.06,36.59,29.50,110.00,111.18,93.51,133.33,40.00,37.90,57.40,15.56,80.00,20.55,29.63,16.67,0.00,10.40
1,156.44,92.86,116.67,98.63,4.84,2.50,2.00,4.38,5.57,23.33,2.00,7.57,108.79,135.00,121.67,73.17,36.68,29.50,110.00,111.20,93.22,136.67,40.00,38.48,56.56,15.56,84.44,18.50,29.49,16.67,0.00,10.40
1,156.48,95.71,126.67,96.21,4.84,2.50,2.00,4.38,5.56,23.33,2.00,7.57,102.75,120.00,118.33,68.39,36.77,30.50,110.00,111.03,96.56,146.67,45.00,40.06,56.89,15.56,84.44,18.66,28.58,13.33,0.00,9.82
1,157.70,95.71,126.67,96.41,4.84,2.50,2.00,4.38,5.57,23.33,2.00,7.57,101.47,120.00,116.67,68.04,36.88,32.00,107.50,110.69,95.74,143.33,45.00,39.87,57.55,15.56,86.67,18.76,28.07,10.00,0.00,8.51
1,158.02,94.29,123.33,100.72,4.85,2.50,2.00,4.38,5.57,23.33,2.00,7.57,101.14,120.00,121.67,66.60,36.01,32.00,105.00,107.14,92.98,133.33,40.00,38.61,58.44,17.78,88.89,19.22,27.99,10.00,0.00,8.42
1,151.46,92.86,123.33,91.54,4.84,2.50,2.00,4.38,5.56,23.33,2.00,7.57,102.58,120.00,123.33,66.92,35.12,31.00,105.00,103.28,92.50,130.00,40.00,37.94,59.22,17.78,88.89,19.60,28.32,10.00,0.00,8.42
1,154.34,92.86,126.67,94.29,4.84,2.50,2.00,4.38,7.61,33.33,3.00,11.01,94.60,100.00,120.00,60.30,34.65,30.50,100.00,103.21,91.04,126.67,35.00,36.76,59.23,17.78,91.11,19.68,27.33,10.00,0.00,8.22
1,158.03,95.71,140.00,95.98,4.85,2.50,2.00,4.38,9.30,36.67,3.50,14.77,94.53,100.00,123.33,57.38,34.24,30.00,100.00,101.77,94.08,126.67,45.00,39.58,60.36,20.00,95.56,19.77,27.59,10.00,0.00,8.33
1,156.34,92.86,136.67,95.31,4.86,2.50,2.00,4.38,7.99,33.33,3.00,11.81,90.97,95.00,118.33,52.24,33.50,28.50,92.50,100.57,93.66,126.67,45.00,39.24,60.51,20.00,97.78,19.37,26.56,6.67,0.00,7.55
1,159.21,91.43,140.00,99.06,4.86,2.50,2.00,4.38,7.65,30.00,3.00,11.37,89.66,95.00,121.67,49.70,33.55,28.00,90.00,103.88,92.34,126.67,50.00,36.72,58.40,17.78,91.11,18.46,25.92,6.67,0.00,7.13
1,156.56,91.43,136.67,97.44,4.86,2.50,2.00,4.38,7.73,30.00,3.00,11.38,88.45,95.00,121.67,47.45,33.55,29.50,92.50,100.54,90.99,123.33,50.00,33.60,56.09,17.78,86.67,17.09,24.45,3.33,0.00,6.16
1,150.72,87.14,126.67,95.80,4.86,2.50,2.00,4.38,8.96,33.33,3.50,12.60,83.85,85.00,115.00,42.57,33.23,30.00,92.50,97.37,90.59,123.33,50.00,32.90,55.26,17.78,86.67,16.40,23.79,0.00,0.00,5.71
1,153.71,91.43,126.67,98.89,4.86,2.50,2.00,4.38,8.27,33.33,3.00,12.19,79.01,80.00,113.33,35.89,32.32,28.50,85.00,92.41,92.23,126.67,50.00,34.01,55.96,20.00,88.89,16.92,22.89,0.00,0.00,5.33
1,151.09,88.57,120.00,98.30,6.07,3.00,2.50,5.08,7.64,30.00,3.00,11.35,78.84,85.00,116.67,34.92,32.58,28.50,85.00,93.84,91.05,130.00,45.00,33.87,56.17,20.00,91.11,16.46,22.37,0.00,0.00,5.11
1,149.85,87.14,123.33,98.08,5.60,3.50,2.50,4.84,7.62,30.00,3.00,11.35,74.52,75.00,113.33,31.23,31.31,28.00,82.50,87.05,88.87,130.00,45.00,33.20,53.62,13.33,93.33,14.25,20.76,0.00,0.00,4.33
1,151.39,90.00,130.00,97.24,6.26,4.00,3.50,5.33,7.62,30.00,3.00,11.35,73.14,65.00,115.00,29.67,30.89,29.00,87.50,83.17,89.40,130.00,45.00,34.09,52.33,13.33,91.11,13.44,20.58,0.00,0.00,4.25
1,154.70,94.29,133.33,97.39,5.89,3.50,3.00,5.33,7.62,30.00,3.00,11.35,73.72,65.00,113.33,29.82,31.42,29.50,92.50,82.70,93.71,140.00,50.00,38.21,53.01,13.33,93.33,13.51,20.73,0.00,0.00,4.40
1,153.57,97.14,126.67,95.92,4.31,2.50,2.50,3.34,7.62,30.00,3.00,11.35,74.77,65.00,118.33,29.46,31.37,29.50,92.50,82.90,91.48,140.00,40.00,37.11,55.11,15.56,93.33,15.08,21.06,0.00,0.00,4.51
1,154.52,100.00,133.33,94.23,4.28,2.50,2.50,3.33,7.62,30.00,3.00,11.35,75.87,75.00,118.33,29.67,31.13,29.50,90.00,82.90,88.41,133.33,35.00,34.93,57.44,20.00,93.33,16.87,21.02,0.00,0.00,4.55
1,154.43,98.57,133.33,94.25,4.28,2.50,2.50,3.33,7.62,30.00,3.00,11.35,79.47,80.00,118.33,33.69,31.86,29.50,90.00,87.44,87.62,126.67,35.00,34.78,57.94,20.00,95.56,16.63,21.04,0.00,0.00,4.51
1,161.53,98.57,140.00,104.49,4.28,2.50,2.50,3.33,7.62,30.00,3.00,11.35,81.95,90.00,125.00,36.21,30.62,28.50,82.50,83.94,92.70,136.67,40.00,38.30,59.29,20.00,100.00,17.71,21.34,0.00,0.00,4.47
1,166.25,98.57,150.00,110.52,4.26,2.50,2.50,3.33,7.60,30.00,3.00,11.35,81.85,90.00,125.00,36.21,31.11,28.50,85.00,84.19,90.21,130.00,35.00,37.42,57.93,20.00,95.56,17.49,21.73,0.00,0.00,4.83
1,169.85,100.00,153.33,115.11,4.28,2.50,2.50,3.33,7.60,30.00,3.00,11.35,83.08,100.00,125.00,38.87,30.89,28.50,85.00,83.96,91.53,133.33,40.00,36.75,58.24,20.00,95.56,17.92,22.45,0.00,0.00,5.09
1,174.18,102.86,153.33,120.26,4.28,2.50,2.50,3.33,7.60,30.00,3.00,11.35,87.11,110.00,128.33,41.56,30.99,29.00,87.50,84.56,91.63,130.00,40.00,36.11,57.68,20.00,95.56,17.37,23.68,0.00,0.00,5.48
1,177.36,104.29,160.00,121.39,4.28,2.50,2.50,3.33,7.60,30.00,3.00,11.35,89.21,110.00,131.67,42.57,30.54,28.00,82.50,84.86,91.71,130.00,35.00,36.98,56.12,20.00,93.33,16.73,23.29,0.00,0.00,5.36
1,176.99,105.71,160.00,118.40,4.28,2.50,2.50,3.34,7.60,30.00,3.00,11.35,89.00,115.00,128.33,42.48,30.07,28.00,82.50,82.06,92.41,133.33,45.00,37.53,54.98,17.78,88.89,16.17,23.22,0.00,0.00,5.37
1,179.16,104.29,160.00,120.26,4.29,2.50,2.50,3.34,9.09,36.67,4.00,13.98,88.17,115.00,126.67,42.57,30.26,27.50,82.50,82.08,91.66,130.00,45.00,36.91,55.41,20.00,88.89,16.45,22.37,0.00,0.00,5.07
1,178.82,101.43,153.33,122.19,4.29,2.50,2.50,3.34,8.42,36.67,3.00,12.23,86.77,110.00,125.00,42.05,31.06,29.00,87.50,81.97,90.60,126.67,45.00,36.88,55.29,20.00,91.11,16.36,21.60,0.00,0.00,4.90
1,179.79,101.43,150.00,123.70,4.29,2.50,2.50,3.34,6.46,30.00,2.00,8.46,85.66,105.00,126.67,41.12,31.33,29.50,87.50,82.53,89.16,126.67,40.00,34.75,53.88,17.78,88.89,16.08,21.70,0.00,0.00,4.92
1,182.88,105.71,156.67,125.74,4.28,2.50,2.50,3.34,5.58,23.33,2.00,7.57,85.80,105.00,128.33,40.84,31.35,30.00,85.00,82.29,90.53,130.00,40.00,35.85,53.33,17.78,84.44,15.62,21.66,0.00,0.00,4.78
1,182.71,107.14,153.33,125.29,4.27,2.50,2.50,3.34,5.57,23.33,2.00,7.56,87.20,105.00,128.33,41.38,31.06,31.00,85.00,78.72,88.62,126.67,35.00,34.60,54.43,17.78,86.67,15.88,21.82,0.00,0.00,4.84
1,186.88,107.14,163.33,129.08,4.27,2.50,2.50,3.34,6.78,30.00,2.50,9.01,86.93,100.00,130.00,41.01,31.01,30.50,87.50,79.32,87.53,126.67,35.00,34.65,54.11,17.78,88.89,15.89,21.96,0.00,0.00,4.80
1,188.67,105.71,163.33,130.12,4.27,2.50,2.50,3.34,8.87,36.67,3.50,12.73,89.50,110.00,133.33,43.09,30.92,30.00,85.00,80.27,85.52,120.00,35.00,34.26,55.38,17.78,93.33,16.18,21.86,0.00,0.00,4.75
1,185.17,102.86,160.00,127.78,6.20,3.50,3.50,5.48,6.90,30.00,2.50,9.31,92.87,115.00,140.00,45.31,31.40,31.50,90.00,81.22,84.48,116.67,35.00,33.51,54.43,15.56,91.11,15.93,22.14,0.00,0.00,4.87
1,184.00,105.71,160.00,124.81,6.78,4.00,4.00,5.83,6.84,30.00,2.50,9.29,89.08,105.00,135.00,43.65,29.42,30.00,80.00,74.62,82.55,106.67,35.00,31.83,52.62,15.56,86.67,15.24,22.94,0.00,0.00,4.90
1,187.43,111.43,173.33,122.66,5.47,4.00,4.00,4.07,6.84,30.00,2.50,9.29,89.24,105.00,138.33,42.73,29.96,31.00,80.00,74.34,83.98,110.00,35.00,32.34,53.41,15.56,82.22,15.62,22.99,0.00,0.00,5.13
1,187.44,110.00,170.00,124.49,4.05,3.00,2.50,2.98,6.84,30.00,2.50,9.29,87.95,105.00,135.00,42.24,28.84,29.50,70.00,73.29,82.10,103.33,40.00,31.95,52.97,15.56,82.22,15.34,22.82,0.00,0.00,5.13
1,184.74,107.14,170.00,122.58,3.88,3.00,2.50,2.89,6.84,30.00,2.50,9.29,88.90,110.00,133.33,43.23,29.45,30.50,67.50,75.90,76.81,96.67,35.00,27.95,52.18,15.56,77.78,14.94,22.85,0.00,0.00,5.09
1,187.03,108.57,170.00,124.14,3.89,3.00,2.50,2.89,6.84,30.00,2.50,9.29,87.25,100.00,130.00,41.66,29.03,30.00,67.50,74.30,76.52,100.00,35.00,27.28,49.61,11.11,73.33,13.24,22.75,0.00,0.00,4.90
1,184.66,105.71,163.33,124.55,3.90,3.00,2.50,2.89,6.84,30.00,2.50,9.29,82.38,80.00,128.33,38.72,29.73,31.50,72.50,75.11,75.75,96.67,35.00,26.63,48.57,6.67,73.33,12.15,22.63,0.00,0.00,4.87
1,181.61,105.71,160.00,121.69,3.90,3.00,2.50,2.89,6.84,30.00,2.50,9.29,80.92,85.00,131.67,36.86,29.51,32.50,72.50,70.50,72.91,90.00,35.00,25.18,50.07,8.89,77.78,12.74,23.52,0.00,0.00,5.28
1,174.46,105.71,150.00,113.35,3.91,3.00,2.50,2.89,6.84,30.00,2.50,9.29,79.45,85.00,128.33,34.00,30.75,34.00,77.50,75.08,68.05,83.33,30.00,22.59,47.58,6.67,73.33,11.32,23.59,0.00,0.00,5.37
1,174.34,110.00,153.33,109.51,3.91,3.00,2.50,2.89,6.83,30.00,2.50,9.29,79.74,80.00,130.00,34.80,30.84,34.00,80.00,73.20,69.21,83.33,35.00,22.44,49.01,6.67,80.00,11.38,23.48,0.00,0.00,5.12
1,168.15,110.00,146.67,101.75,3.89,3.00,2.50,2.89,6.83,30.00,2.50,9.29,79.70,75.00,130.00,33.53,30.42,33.50,80.00,72.25,67.53,83.33,35.00,21.49,49.05,6.67,77.78,11.64,23.73,0.00,0.00,5.07
1,168.21,108.57,140.00,103.03,3.89,3.00,2.50,2.89,6.83,30.00,2.50,9.29,77.58,70.00,126.67,32.00,30.68,34.00,80.00,71.16,68.01,86.67,35.00,21.51,47.90,4.44,75.56,11.07,22.96,0.00,0.00,4.66
1,171.88,108.57,143.33,111.12,3.89,3.00,2.50,2.89,6.83,30.00,2.50,9.29,77.87,70.00,125.00,33.43,30.80,34.00,87.50,69.71,64.36,76.67,30.00,18.27,49.21,4.44,77.78,11.81,23.10,0.00,0.00,4.66
1,171.38,107.14,146.67,111.02,3.89,3.00,2.50,2.89,6.84,30.00,2.50,9.29,76.80,70.00,121.67,33.63,30.73,33.50,87.50,70.73,61.06,66.67,20.00,16.91,50.02,4.44,80.00,12.24,23.37,0.00,0.00,4.61
