0,43.51,5.71,0.00,7.77,7.67,5.50,6.50,5.52,3.11,10.00,1.00,4.58,24.01,0.00,31.67,3.37,0.00,0.00,0.00,0.00,12.61,0.00,0.00,0.69,18.94,0.00,4.44,1.61,13.10,0.00,0.00,1.77
0,43.58,5.71,0.00,7.83,8.88,6.00,7.00,6.32,1.18,3.33,0.00,0.92,23.91,0.00,28.33,3.31,0.00,0.00,0.00,0.00,13.24,0.00,0.00,0.73,18.77,0.00,4.44,1.65,13.35,0.00,0.00,1.80
0,47.47,8.57,0.00,9.91,11.06,7.00,9.00,9.65,0.59,0.00,0.00,0.01,23.97,0.00,30.00,3.38,0.00,0.00,0.00,0.00,13.60,0.00,0.00,0.77,19.09,0.00,4.44,1.69,13.21,0.00,0.00,1.84
0,47.67,8.57,0.00,10.25,13.31,8.50,10.50,12.11,1.89,6.67,0.50,0.83,23.98,0.00,30.00,3.38,0.00,0.00,0.00,0.00,13.68,0.00,0.00,0.79,18.80,0.00,4.44,1.67,12.90,0.00,0.00,1.75
0,47.48,10.00,0.00,10.27,13.57,8.50,10.50,12.30,2.74,13.33,0.50,2.29,23.86,0.00,30.00,3.42,0.00,0.00,0.00,0.00,13.57,0.00,0.00,0.78,19.28,0.00,4.44,1.71,12.73,0.00,0.00,1.67
0,48.44,11.43,0.00,10.29,13.60,8.50,10.50,12.30,2.92,13.33,0.50,2.35,23.57,0.00,28.33,3.37,0.00,0.00,0.00,0.00,13.43,0.00,0.00,0.77,19.51,0.00,4.44,1.75,12.74,0.00,0.00,1.63
0,49.26,11.43,0.00,10.62,13.60,8.50,10.50,12.30,2.92,13.33,0.50,2.35,24.01,0.00,33.33,3.29,0.00,0.00,0.00,0.00,13.13,0.00,0.00,0.72,19.87,0.00,4.44,1.79,12.83,0.00,0.00,1.65
0,50.57,14.29,0.00,11.09,15.03,9.00,11.00,13.13,2.92,13.33,0.50,2.35,24.91,0.00,35.00,3.87,0.00,0.00,0.00,0.00,12.86,0.00,0.00,0.69,20.29,0.00,4.44,1.95,12.95,0.00,0.00,1.67
0,49.45,11.43,0.00,10.80,17.26,10.00,12.50,15.42,2.88,13.33,0.50,2.35,24.23,0.00,33.33,3.47,0.00,0.00,0.00,0.00,13.09,0.00,0.00,0.69,19.62,0.00,2.22,1.77,13.12,0.00,0.00,1.66
0,50.70,12.86,0.00,11.80,19.10,11.00,14.00,19.35,4.47,20.00,1.00,4.54,25.18,0.00,35.00,3.89,0.00,0.00,0.00,0.00,13.09,0.00,0.00,0.67,20.18,0.00,4.44,1.89,12.84,0.00,0.00,1.60
0,49.47,12.86,0.00,11.68,19.34,11.00,14.00,19.42,6.57,26.67,2.00,8.33,24.85,0.00,33.33,3.79,0.00,0.00,0.00,0.00,13.25,0.00,0.00,0.66,19.55,0.00,4.44,1.85,12.74,0.00,0.00,1.54
0,49.52,12.86,0.00,11.75,19.33,11.00,14.00,19.42,6.71,26.67,2.00,8.38,24.29,0.00,30.00,3.71,0.00,0.00,0.00,0.00,12.90,0.00,0.00,0.65,18.67,0.00,4.44,1.75,12.69,0.00,0.00,1.51
0,49.49,12.86,0.00,11.47,19.33,11.00,14.00,19.42,6.71,26.67,2.00,8.38,24.25,0.00,30.00,3.68,0.00,0.00,0.00,0.00,12.89,0.00,0.00,0.62,19.72,0.00,4.44,1.98,12.43,0.00,0.00,1.42
0,51.39,14.29,0.00,11.69,19.32,11.00,14.00,19.42,6.71,26.67,2.00,8.38,24.13,0.00,28.33,3.68,0.00,0.00,0.00,0.00,12.63,0.00,0.00,0.60,19.76,0.00,4.44,2.04,12.15,0.00,0.00,1.36
0,52.97,15.71,0.00,12.82,19.31,11.00,14.00,19.42,6.70,26.67,2.00,8.38,24.91,0.00,31.67,3.97,0.00,0.00,0.00,0.00,12.34,0.00,0.00,0.58,20.34,0.00,4.44,2.13,12.58,0.00,0.00,1.44
0,53.00,15.71,0.00,12.76,19.31,11.00,14.00,19.42,6.70,26.67,2.00,8.38,25.36,0.00,33.33,4.07,0.00,0.00,0.00,0.00,12.76,0.00,0.00,0.60,21.18,0.00,4.44,2.26,12.55,0.00,0.00,1.43
0,53.29,15.71,0.00,12.83,18.62,10.50,13.00,19.14,6.70,26.67,2.00,8.38,26.17,0.00,33.33,4.28,0.00,0.00,0.00,0.00,13.37,0.00,0.00,0.73,21.99,0.00,4.44,2.37,12.90,0.00,0.00,1.50
0,55.00,17.14,0.00,13.64,17.95,10.00,12.00,18.89,6.70,26.67,2.00,8.38,26.14,0.00,31.67,4.27,0.00,0.00,0.00,0.00,13.55,0.00,0.00,0.77,21.09,0.00,4.44,2.28,12.43,0.00,0.00,1.44
0,57.16,20.00,0.00,14.66,16.61,9.00,11.00,18.28,6.70,26.67,2.00,8.38,27.50,0.00,35.00,4.64,0.00,0.00,0.00,0.00,13.74,0.00,0.00,0.79,21.13,0.00,4.44,2.30,12.13,0.00,0.00,1.36
0,55.83,17.14,0.00,13.68,14.84,8.00,9.50,16.03,6.71,26.67,2.00,8.38,28.27,0.00,40.00,4.85,0.00,0.00,0.00,0.00,13.66,0.00,0.00,0.82,21.18,0.00,4.44,2.41,11.68,0.00,0.00,1.31
0,57.41,18.57,0.00,14.86,13.69,6.50,8.50,15.24,6.72,26.67,2.00,8.38,29.21,0.00,41.67,5.21,0.00,0.00,0.00,0.00,13.77,0.00,0.00,0.82,21.12,0.00,2.22,2.39,11.62,0.00,0.00,1.32
0,58.20,20.00,0.00,15.97,12.22,5.50,7.50,14.01,6.72,26.67,2.00,8.38,29.64,0.00,43.33,5.39,0.00,0.00,0.00,0.00,13.78,0.00,0.00,0.85,20.87,0.00,2.22,2.42,11.47,0.00,0.00,1.32
0,58.92,21.43,0.00,16.29,12.06,5.50,7.50,13.91,6.72,26.67,2.00,8.38,30.29,0.00,48.33,5.83,0.00,0.00,0.00,0.00,13.07,0.00,0.00,0.79,20.58,0.00,2.22,2.40,11.53,0.00,0.00,1.35
0,57.60,22.86,0.00,15.02,9.68,4.50,5.50,11.61,6.72,26.67,2.00,8.38,30.21,0.00,50.00,5.77,0.00,0.00,0.00,0.00,12.99,0.00,0.00,0.76,20.27,0.00,2.22,2.28,11.19,0.00,0.00,1.32
0,56.96,22.86,0.00,14.93,6.90,3.00,3.50,8.52,6.24,23.33,2.00,8.19,30.52,0.00,50.00,5.80,0.00,0.00,0.00,0.00,12.82,0.00,0.00,0.72,20.33,0.00,2.22,2.31,11.32,0.00,0.00,1.29
0,56.92,22.86,0.00,14.99,6.67,3.00,4.50,7.37,4.72,16.67,1.50,6.26,30.56,0.00,51.67,5.81,0.00,0.00,0.00,0.00,12.74,0.00,0.00,0.72,20.40,0.00,2.22,2.31,11.00,0.00,0.00,1.25
0,56.83,21.43,0.00,15.50,7.52,4.50,5.50,7.76,4.29,13.33,1.50,6.04,31.41,0.00,50.00,6.34,0.00,0.00,0.00,0.00,13.12,0.00,0.00,0.74,20.32,0.00,2.22,2.34,11.16,0.00,0.00,1.27
0,58.98,22.86,3.33,16.87,8.27,5.50,6.50,8.10,4.29,13.33,1.50,6.04,31.33,0.00,50.00,6.38,0.00,0.00,0.00,0.00,12.96,0.00,0.00,0.74,20.28,0.00,2.22,2.31,11.15,0.00,0.00,1.24
0,57.88,22.86,3.33,16.81,9.94,6.50,8.00,9.90,4.29,13.33,1.50,6.04,30.27,0.00,46.67,5.94,0.00,0.00,0.00,0.00,13.54,0.00,0.00,0.79,19.56,0.00,2.22,2.16,11.20,0.00,0.00,1.27
0,57.71,21.43,3.33,16.43,9.93,6.50,8.00,10.05,4.29,13.33,1.50,6.04,30.00,0.00,46.67,5.91,0.00,0.00,0.00,0.00,13.35,0.00,0.00,0.79,19.62,0.00,2.22,2.15,11.24,0.00,0.00,1.32
0,56.89,21.43,3.33,16.05,10.18,6.50,9.00,8.96,3.08,10.00,1.00,4.25,29.86,0.00,48.33,5.71,0.00,0.00,0.00,0.00,13.74,0.00,0.00,0.84,19.15,0.00,0.00,2.02,11.37,0.00,0.00,1.37
0,57.57,21.43,3.33,15.76,11.82,7.50,10.50,12.07,0.78,0.00,0.00,0.37,31.00,0.00,51.67,6.23,0.00,0.00,0.00,0.00,13.36,0.00,0.00,0.82,19.77,0.00,0.00,2.09,11.21,0.00,0.00,1.35
0,58.35,21.43,3.33,15.85,14.24,9.00,12.00,14.95,1.79,3.33,0.50,1.19,31.26,0.00,51.67,6.52,0.00,0.00,0.00,0.00,13.61,0.00,0.00,0.86,20.30,0.00,0.00,2.17,11.48,0.00,0.00,1.39
0,58.34,21.43,3.33,16.22,15.86,10.00,13.50,16.56,3.86,10.00,2.00,5.85,32.19,0.00,51.67,6.80,0.00,0.00,0.00,0.00,13.86,0.00,0.00,0.86,19.30,0.00,0.00,1.98,12.04,0.00,0.00,1.47
0,57.77,21.43,3.33,16.39,16.05,10.00,13.50,16.67,4.81,16.67,2.00,6.90,31.92,0.00,51.67,6.67,0.00,0.00,0.00,0.00,13.85,0.00,0.00,0.86,20.05,0.00,0.00,2.00,11.98,0.00,0.00,1.48
0,58.27,20.00,3.33,15.69,16.48,10.00,13.50,16.67,4.87,16.67,2.00,6.92,31.06,0.00,48.33,6.36,0.00,0.00,0.00,0.00,13.74,0.00,0.00,0.86,20.20,0.00,2.22,2.07,11.79,0.00,0.00,1.43
0,58.47,20.00,3.33,15.83,19.34,11.50,15.50,19.72,4.88,16.67,2.00,6.92,30.91,0.00,48.33,6.26,0.00,0.00,0.00,0.00,13.67,0.00,0.00,0.87,19.68,0.00,2.22,1.93,11.94,0.00,0.00,1.55
0,57.88,20.00,3.33,15.88,21.62,12.50,17.00,22.22,4.88,16.67,2.00,6.92,30.54,0.00,46.67,6.21,0.00,0.00,0.00,0.00,13.36,0.00,0.00,0.83,19.18,0.00,2.22,1.83,11.64,0.00,0.00,1.47
0,56.10,18.57,3.33,14.96,23.74,13.50,19.50,26.29,5.14,16.67,2.00,6.99,31.28,0.00,48.33,6.62,0.00,0.00,0.00,0.00,13.45,0.00,0.00,0.78,19.84,0.00,2.22,1.88,11.86,0.00,0.00,1.49
0,54.41,17.14,3.33,14.42,24.20,14.00,19.50,26.57,6.85,23.33,2.50,9.39,30.87,0.00,48.33,6.38,0.00,0.00,0.00,0.00,13.40,0.00,0.00,0.80,20.16,0.00,2.22,1.89,12.21,0.00,0.00,1.52
0,54.78,17.14,3.33,14.36,24.22,14.00,19.50,26.57,9.20,30.00,3.50,13.09,30.50,0.00,46.67,6.27,0.00,0.00,0.00,0.00,13.17,0.00,0.00,0.77,19.80,0.00,2.22,1.81,12.33,0.00,0.00,1.54
0,53.35,17.14,3.33,13.65,24.21,14.00,19.50,26.57,10.98,36.67,4.50,16.83,30.33,0.00,51.67,6.01,0.00,0.00,0.00,0.00,13.26,0.00,0.00,0.78,20.43,0.00,4.44,1.85,12.14,0.00,0.00,1.57
0,52.33,15.71,3.33,12.49,24.21,14.00,19.50,26.57,11.01,36.67,4.50,16.84,30.26,0.00,50.00,6.18,0.00,0.00,0.00,0.00,13.38,0.00,0.00,0.80,20.49,0.00,4.44,1.85,12.12,0.00,0.00,1.61
0,54.32,17.14,3.33,13.49,24.20,14.00,19.50,26.57,11.01,36.67,4.50,16.84,29.69,0.00,48.33,5.91,0.00,0.00,0.00,0.00,13.23,0.00,0.00,0.80,20.70,0.00,4.44,1.86,12.31,0.00,0.00,1.58
0,50.64,11.43,3.33,12.43,24.20,14.00,19.50,26.57,11.02,36.67,4.50,16.84,30.21,0.00,48.33,6.26,0.00,0.00,0.00,0.00,13.08,0.00,0.00,0.81,20.99,0.00,4.44,1.99,12.12,0.00,0.00,1.57
0,51.94,11.43,3.33,12.72,24.19,14.00,19.50,26.57,11.01,36.67,4.50,16.84,31.01,0.00,51.67,6.29,0.00,0.00,0.00,0.00,13.33,0.00,0.00,0.87,21.43,0.00,4.44,1.98,12.37,0.00,0.00,1.64
0,50.89,10.00,3.33,12.18,24.03,14.00,19.00,26.57,11.01,36.67,4.50,16.84,30.81,0.00,51.67,6.26,0.00,0.00,0.00,0.00,13.67,0.00,0.00,0.94,21.40,0.00,4.44,1.98,12.43,0.00,0.00,1.66
0,50.32,10.00,3.33,11.58,22.97,12.50,17.50,26.13,11.01,36.67,4.50,16.84,30.68,0.00,56.67,5.97,0.00,0.00,0.00,0.00,13.55,0.00,0.00,0.93,21.29,0.00,4.44,1.93,12.81,0.00,0.00,1.76
0,47.06,8.57,0.00,9.77,22.18,11.50,16.50,25.65,11.00,36.67,4.50,16.84,31.04,0.00,55.00,5.93,0.00,0.00,0.00,0.00,13.67,0.00,0.00,0.96,21.58,0.00,4.44,1.97,12.37,0.00,0.00,1.72
0,46.46,7.14,0.00,9.85,20.35,10.00,15.00,23.93,11.02,36.67,4.50,16.84,31.55,0.00,56.67,6.32,0.00,0.00,0.00,0.00,13.33,0.00,0.00,0.96,22.08,0.00,4.44,2.06,12.29,0.00,0.00,1.69
0,46.22,7.14,0.00,9.53,18.30,9.00,13.50,21.47,11.03,36.67,4.50,16.84,31.92,0.00,58.33,6.39,0.00,0.00,0.00,0.00,13.55,0.00,0.00,0.99,22.18,0.00,4.44,2.10,12.30,0.00,0.00,1.68
0,46.66,7.14,0.00,9.52,16.18,8.00,11.50,18.85,11.03,36.67,4.50,16.84,32.72,0.00,60.00,6.68,0.00,0.00,0.00,0.00,13.64,0.00,0.00,1.00,22.28,0.00,4.44,2.10,12.58,0.00,0.00,1.80
0,49.45,10.00,0.00,10.59,13.82,7.00,9.50,16.35,11.00,36.67,4.50,16.84,32.15,0.00,60.00,6.29,0.00,0.00,0.00,0.00,13.49,0.00,0.00,1.00,21.77,0.00,4.44,2.04,12.59,0.00,0.00,1.81
0,49.36,11.43,0.00,11.34,10.91,5.50,7.50,13.10,11.00,36.67,4.50,16.84,31.83,0.00,60.00,6.01,0.00,0.00,0.00,0.00,13.68,0.00,0.00,1.00,21.93,0.00,4.44,2.04,13.26,0.00,0.00,2.11
0,52.37,14.29,3.33,12.65,9.06,4.50,6.00,10.29,8.65,30.00,3.00,13.38,31.90,0.00,60.00,6.18,0.00,0.00,0.00,0.00,13.26,0.00,0.00,0.99,22.31,0.00,4.44,2.09,12.48,0.00,0.00,2.09
0,51.73,14.29,3.33,12.41,8.84,4.50,6.00,9.97,6.84,20.00,2.50,10.14,32.32,0.00,61.67,6.25,0.00,0.00,0.00,0.00,13.51,0.00,0.00,1.03,22.13,0.00,4.44,2.02,12.54,0.00,0.00,2.07
0,51.17,17.14,3.33,12.52,9.54,5.50,7.00,10.27,6.61,20.00,2.50,9.93,32.98,0.00,63.33,6.60,0.00,0.00,0.00,0.00,13.56,0.00,0.00,1.04,22.08,0.00,2.22,2.02,12.68,0.00,0.00,2.11
0,49.91,15.71,3.33,12.47,9.09,5.50,6.50,9.40,6.61,20.00,2.50,9.93,32.93,0.00,63.33,6.58,0.00,0.00,0.00,0.00,13.97,0.00,0.00,1.10,21.75,0.00,2.22,2.00,12.42,0.00,0.00,2.05
0,49.49,15.71,3.33,12.52,9.10,5.50,6.50,9.36,6.61,20.00,2.50,9.93,32.56,0.00,61.67,6.41,0.00,0.00,0.00,0.00,14.02,0.00,0.00,1.08,21.88,0.00,2.22,2.07,12.59,0.00,0.00,2.10
0,50.49,17.14,3.33,12.89,9.42,6.00,6.50,8.45,6.40,20.00,2.50,9.87,32.36,0.00,66.67,6.33,0.00,0.00,0.00,0.00,13.82,0.00,0.00,1.06,21.87,0.00,2.22,2.05,12.53,0.00,0.00,2.11
0,51.01,17.14,3.33,13.04,10.48,6.00,8.00,11.04,4.76,13.33,2.00,7.67,32.34,0.00,66.67,6.18,0.00,0.00,0.00,0.00,13.81,0.00,0.00,1.02,21.51,0.00,2.22,2.01,12.50,0.00,0.00,2.14
0,51.92,18.57,3.33,13.37,12.72,7.50,9.50,13.55,2.72,6.67,1.00,4.01,32.47,0.00,65.00,6.35,0.00,0.00,0.00,0.00,14.03,0.00,0.00,1.02,21.56,0.00,2.22,1.99,12.62,0.00,0.00,2.19
0,50.94,17.14,3.33,12.96,13.00,7.50,9.50,13.76,1.92,6.67,1.00,2.13,32.67,0.00,63.33,6.38,0.00,0.00,0.00,0.00,14.02,0.00,0.00,1.04,21.78,0.00,0.00,2.08,12.67,0.00,0.00,2.19
0,51.27,18.57,3.33,13.18,15.03,8.50,10.50,16.05,2.41,10.00,1.00,2.73,32.43,0.00,61.67,6.41,0.00,0.00,0.00,0.00,13.66,0.00,0.00,0.99,21.72,0.00,0.00,2.06,12.62,0.00,0.00,2.12
0,48.03,17.14,3.33,11.66,15.17,8.50,10.50,16.08,2.42,10.00,1.00,2.73,32.42,0.00,61.67,6.36,0.00,0.00,0.00,0.00,13.76,0.00,0.00,0.99,21.33,0.00,0.00,1.98,12.62,0.00,0.00,2.16
0,49.38,17.14,3.33,11.81,16.49,9.00,11.00,16.89,2.42,10.00,1.00,2.73,31.58,0.00,58.33,5.86,0.00,0.00,0.00,0.00,13.96,0.00,0.00,1.00,20.76,0.00,0.00,1.83,12.92,0.00,0.00,2.21
0,51.22,18.57,3.33,13.13,17.32,9.50,11.50,18.39,2.42,10.00,1.00,2.73,31.35,0.00,56.67,5.79,0.00,0.00,0.00,0.00,13.61,0.00,0.00,0.95,21.12,0.00,0.00,1.88,12.77,0.00,0.00,2.19
0,52.43,21.43,3.33,13.86,18.35,10.00,12.50,19.17,2.42,10.00,1.00,2.73,31.00,0.00,51.67,5.84,0.00,0.00,0.00,0.00,13.54,0.00,0.00,0.93,20.39,0.00,0.00,1.81,13.33,0.00,0.00,2.31
0,51.94,21.43,3.33,13.81,18.94,10.50,12.50,19.48,3.81,16.67,1.50,4.33,31.16,0.00,50.00,5.76,0.00,0.00,0.00,0.00,13.44,0.00,0.00,0.92,20.56,0.00,0.00,1.88,13.47,0.00,0.00,2.33
0,51.47,21.43,3.33,13.71,18.98,10.50,12.50,19.48,6.17,23.33,2.50,7.97,31.44,0.00,51.67,6.16,0.00,0.00,0.00,0.00,13.11,0.00,0.00,0.86,20.28,0.00,0.00,1.86,13.10,0.00,0.00,2.24
0,51.67,21.43,3.33,13.67,18.98,10.50,12.50,19.48,7.93,30.00,3.50,11.71,30.79,0.00,50.00,5.72,0.00,0.00,0.00,0.00,13.03,0.00,0.00,0.86,19.92,0.00,0.00,1.87,13.19,0.00,0.00,2.25
0,53.33,22.86,3.33,14.41,18.98,10.50,12.50,19.48,7.97,30.00,3.50,11.72,30.61,0.00,50.00,5.71,0.00,0.00,0.00,0.00,12.69,0.00,0.00,0.85,20.22,0.00,0.00,1.94,13.25,0.00,0.00,2.28
0,53.58,24.29,3.33,14.67,18.97,10.50,12.50,19.48,7.97,30.00,3.50,11.72,29.24,0.00,45.00,5.19,0.00,0.00,0.00,0.00,12.29,0.00,0.00,0.77,20.52,0.00,0.00,1.96,12.93,0.00,0.00,2.16
0,50.23,21.43,3.33,13.70,18.97,10.50,12.50,19.48,7.97,30.00,3.50,11.72,28.72,0.00,43.33,5.06,0.00,0.00,0.00,0.00,12.31,0.00,0.00,0.75,20.03,0.00,0.00,1.94,13.04,0.00,0.00,2.11
0,49.73,20.00,3.33,13.35,18.96,10.50,12.50,19.48,7.97,30.00,3.50,11.72,28.80,0.00,45.00,5.07,0.00,0.00,0.00,0.00,12.26,0.00,0.00,0.78,19.59,0.00,0.00,1.89,12.66,0.00,0.00,2.07
0,48.97,20.00,0.00,13.24,18.96,10.50,12.50,19.48,7.97,30.00,3.50,11.72,27.75,0.00,41.67,4.84,0.00,0.00,0.00,0.00,12.37,0.00,0.00,0.77,19.25,0.00,0.00,1.87,12.36,0.00,0.00,1.75
0,49.34,21.43,0.00,12.20,18.74,10.00,12.50,19.46,7.97,30.00,3.50,11.72,27.85,0.00,43.33,4.89,0.00,0.00,0.00,0.00,11.88,0.00,0.00,0.73,19.33,0.00,0.00,1.91,12.59,0.00,0.00,1.79
0,51.90,22.86,3.33,13.23,18.10,9.50,11.50,19.18,7.97,30.00,3.50,11.72,27.39,0.00,43.33,4.47,0.00,0.00,0.00,0.00,11.87,0.00,0.00,0.70,19.02,0.00,0.00,1.86,12.43,0.00,0.00,1.76
0,50.73,21.43,3.33,12.53,16.47,8.00,10.50,17.84,7.98,30.00,3.50,11.72,27.96,0.00,45.00,4.76,0.00,0.00,0.00,0.00,11.30,0.00,0.00,0.63,19.82,0.00,2.22,2.03,12.47,0.00,0.00,1.73
0,51.42,21.43,3.33,12.63,14.43,7.00,9.00,15.44,8.00,30.00,3.50,11.72,27.78,0.00,45.00,4.69,0.00,0.00,0.00,0.00,11.18,0.00,0.00,0.63,19.48,0.00,2.22,1.99,12.71,0.00,0.00,1.79
0,54.19,27.14,3.33,13.53,12.31,6.00,7.00,12.81,8.01,30.00,3.50,11.72,27.60,0.00,45.00,4.59,0.00,0.00,0.00,0.00,11.42,0.00,0.00,0.64,19.48,0.00,4.44,1.96,12.57,0.00,0.00,1.76
0,53.49,27.14,3.33,13.51,9.95,5.00,5.00,10.30,8.02,30.00,3.50,11.72,28.31,0.00,45.00,5.11,0.00,0.00,0.00,0.00,11.33,0.00,0.00,0.63,19.85,0.00,4.44,1.98,12.78,0.00,0.00,1.82
0,53.01,25.71,3.33,13.31,7.15,3.50,3.00,7.18,8.02,30.00,3.50,11.72,27.66,0.00,45.00,4.93,0.00,0.00,0.00,0.00,11.25,0.00,0.00,0.62,19.73,0.00,4.44,2.02,13.10,0.00,0.00,1.79
0,53.72,24.29,3.33,13.43,6.36,3.00,3.00,5.73,7.65,26.67,3.00,11.72,27.42,0.00,43.33,4.90,0.00,0.00,0.00,0.00,11.31,0.00,0.00,0.61,19.24,0.00,4.44,1.96,13.20,0.00,0.00,1.82
0,55.24,25.71,3.33,14.45,5.19,3.00,3.00,3.98,6.11,20.00,2.50,9.03,27.48,0.00,45.00,4.86,0.00,0.00,0.00,0.00,11.58,0.00,0.00,0.63,19.25,0.00,4.44,1.96,13.18,0.00,0.00,1.86
0,57.89,27.14,6.67,15.86,6.88,4.00,4.50,5.97,6.05,20.00,2.50,9.00,26.94,0.00,43.33,4.74,0.00,0.00,0.00,0.00,11.54,0.00,0.00,0.63,19.21,0.00,4.44,1.94,13.16,0.00,0.00,1.82
0,59.23,27.14,6.67,16.51,8.92,5.00,6.00,8.46,6.06,20.00,2.50,9.00,26.27,0.00,41.67,4.63,0.00,0.00,0.00,0.00,11.59,0.00,0.00,0.63,19.19,0.00,4.44,1.93,12.98,0.00,0.00,1.77
0,59.30,27.14,6.67,16.60,8.45,5.00,7.00,7.34,6.06,20.00,2.50,9.00,26.09,0.00,41.67,4.60,0.00,0.00,0.00,0.00,12.04,0.00,0.00,0.62,19.25,0.00,4.44,1.98,13.10,0.00,0.00,1.71
0,58.70,25.71,10.00,16.45,9.60,6.00,7.50,9.05,6.05,20.00,2.50,9.00,26.35,0.00,45.00,4.64,0.00,0.00,0.00,0.00,11.96,0.00,0.00,0.62,20.10,0.00,6.67,2.19,12.69,0.00,0.00,1.59
0,61.92,28.57,13.33,18.28,9.90,5.50,8.00,9.77,4.77,13.33,2.00,7.54,25.71,0.00,45.00,4.56,0.00,0.00,0.00,0.00,11.89,0.00,0.00,0.60,19.62,0.00,6.67,2.14,12.00,0.00,0.00,1.47
0,63.06,28.57,13.33,18.61,10.43,6.00,8.00,10.29,2.74,6.67,1.00,4.01,23.84,0.00,40.00,3.87,0.00,0.00,0.00,0.00,12.02,0.00,0.00,0.60,19.58,0.00,6.67,2.15,12.05,0.00,0.00,1.47
0,63.78,30.00,13.33,18.97,10.45,6.00,8.00,10.29,0.63,0.00,0.00,0.06,24.42,0.00,41.67,4.02,0.00,0.00,0.00,0.00,12.38,0.00,0.00,0.62,19.01,0.00,6.67,2.04,12.24,0.00,0.00,1.51
0,63.22,31.43,13.33,18.62,12.48,7.00,9.00,12.58,2.34,6.67,1.00,2.94,24.68,0.00,43.33,4.05,0.00,0.00,0.00,0.00,11.97,0.00,0.00,0.57,18.38,0.00,6.67,1.91,12.10,0.00,0.00,1.47
0,62.96,31.43,13.33,18.73,14.57,8.00,11.00,14.45,3.10,13.33,1.00,3.72,26.06,0.00,48.33,4.36,0.00,0.00,0.00,0.00,12.32,0.00,0.00,0.59,18.61,0.00,6.67,2.03,12.18,0.00,0.00,1.42
0,64.71,32.86,13.33,19.40,16.35,9.00,12.00,16.91,3.18,13.33,1.00,3.76,26.47,0.00,50.00,4.37,0.00,0.00,0.00,0.00,12.49,0.00,0.00,0.61,18.97,0.00,6.67,2.11,12.38,0.00,0.00,1.46
0,63.30,31.43,13.33,18.55,16.39,9.00,12.00,16.92,3.18,13.33,1.00,3.76,26.40,0.00,48.33,4.38,0.00,0.00,0.00,0.00,12.36,0.00,0.00,0.59,20.02,0.00,6.67,2.33,12.37,0.00,0.00,1.47
0,65.89,35.71,20.00,19.68,17.88,9.50,13.00,18.66,3.18,13.33,1.00,3.76,26.28,0.00,48.33,4.37,0.00,0.00,0.00,0.00,12.58,0.00,0.00,0.57,20.84,0.00,6.67,2.44,12.71,0.00,0.00,1.51
0,65.66,35.71,20.00,19.85,19.86,11.00,14.50,20.60,3.25,13.33,1.00,3.77,25.73,0.00,45.00,4.24,0.00,0.00,0.00,0.00,12.85,0.00,0.00,0.59,20.66,0.00,6.67,2.41,12.66,0.00,0.00,1.50
0,62.77,31.43,16.67,18.91,21.81,12.00,16.00,23.28,5.31,20.00,1.50,6.24,25.49,0.00,45.00,4.14,0.00,0.00,0.00,0.00,12.62,0.00,0.00,0.58,20.04,0.00,6.67,2.32,12.75,0.00,0.00,1.48
0,65.07,35.71,16.67,20.04,21.99,12.00,16.00,23.35,8.19,30.00,3.00,10.97,25.09,0.00,45.00,3.87,0.00,0.00,0.00,0.00,12.96,0.00,0.00,0.59,19.59,0.00,4.44,2.21,12.65,0.00,0.00,1.46
0,66.72,37.14,16.67,20.92,21.98,12.00,16.00,23.35,9.03,33.33,3.50,13.53,26.33,0.00,48.33,4.31,0.00,0.00,0.00,0.00,12.76,0.00,0.00,0.59,20.25,0.00,4.44,2.41,12.38,0.00,0.00,1.39
0,66.62,35.71,16.67,20.69,21.98,12.00,16.00,23.35,9.07,33.33,3.50,13.54,26.21,0.00,43.33,4.45,0.00,0.00,0.00,0.00,12.09,0.00,0.00,0.53,20.17,0.00,2.22,2.43,12.68,0.00,0.00,1.47
0,66.82,34.29,20.00,20.96,21.98,12.00,16.00,23.35,9.06,33.33,3.50,13.54,25.63,0.00,43.33,4.05,0.00,0.00,0.00,0.00,11.99,0.00,0.00,0.53,20.16,0.00,2.22,2.52,12.25,0.00,0.00,1.36
0,66.75,34.29,20.00,20.78,21.97,12.00,16.00,23.35,9.07,33.33,3.50,13.54,26.89,0.00,46.67,4.28,0.00,0.00,0.00,0.00,11.63,0.00,0.00,0.51,20.48,0.00,2.22,2.50,11.78,0.00,0.00,1.31
0,65.86,34.29,20.00,20.79,21.96,12.00,16.00,23.35,9.07,33.33,3.50,13.54,26.28,0.00,45.00,4.07,0.00,0.00,0.00,0.00,11.45,0.00,0.00,0.49,20.35,0.00,2.22,2.39,11.59,0.00,0.00,1.24
0,66.76,35.71,23.33,21.66,21.44,11.50,15.00,23.22,9.07,33.33,3.50,13.54,26.38,0.00,45.00,4.03,0.00,0.00,0.00,0.00,11.56,0.00,0.00,0.48,20.82,0.00,2.22,2.40,11.36,0.00,0.00,1.15
0,63.11,32.86,20.00,19.40,19.69,10.50,13.50,21.21,9.07,33.33,3.50,13.54,26.53,0.00,43.33,4.22,0.00,0.00,0.00,0.00,11.55,0.00,0.00,0.51,21.48,0.00,4.44,2.62,11.13,0.00,0.00,1.12
0,63.45,34.29,20.00,19.61,17.34,9.00,12.00,18.49,9.06,33.33,3.50,13.54,26.71,0.00,43.33,4.28,0.00,0.00,0.00,0.00,11.76,0.00,0.00,0.53,21.87,0.00,4.44,2.70,11.03,0.00,0.00,1.11
0,62.52,34.29,20.00,19.24,15.91,8.00,10.50,17.19,9.06,33.33,3.50,13.54,27.24,0.00,45.00,4.43,0.00,0.00,0.00,0.00,11.37,0.00,0.00,0.50,22.01,0.00,4.44,2.68,10.61,0.00,0.00,1.06
0,61.02,32.86,16.67,17.94,14.15,7.00,9.00,15.41,9.07,33.33,3.50,13.54,26.96,0.00,41.67,4.41,0.00,0.00,0.00,0.00,10.98,0.00,0.00,0.49,21.44,0.00,2.22,2.55,10.28,0.00,0.00,1.01
0,58.38,28.57,13.33,16.11,13.61,7.00,8.50,15.38,9.07,33.33,3.50,13.54,26.65,0.00,40.00,4.31,0.00,0.00,0.00,0.00,11.14,0.00,0.00,0.51,21.79,0.00,2.22,2.53,10.29,0.00,0.00,0.99
0,59.60,30.00,13.33,18.04,11.90,6.00,8.00,13.07,9.07,33.33,3.50,13.54,27.10,0.00,40.00,4.30,0.00,0.00,0.00,0.00,11.05,0.00,0.00,0.52,22.22,0.00,4.44,2.72,10.17,0.00,0.00,0.99
0,60.22,30.00,13.33,18.09,12.03,6.00,8.00,13.09,9.07,33.33,3.50,13.54,26.68,0.00,38.33,4.21,0.00,0.00,0.00,0.00,10.92,0.00,0.00,0.50,22.78,0.00,4.44,2.85,10.06,0.00,0.00,0.96
0,61.38,30.00,13.33,18.45,10.59,5.50,7.50,11.12,7.79,30.00,2.50,12.43,26.42,0.00,35.00,4.26,0.00,0.00,0.00,0.00,11.14,0.00,0.00,0.52,23.02,0.00,4.44,2.92,9.98,0.00,0.00,0.97
0,61.29,28.57,13.33,18.29,9.12,4.50,6.00,9.23,6.62,23.33,2.50,9.93,26.17,0.00,33.33,4.28,0.00,0.00,0.00,0.00,11.47,0.00,0.00,0.58,23.00,0.00,4.44,2.91,9.85,0.00,0.00,0.94
0,61.49,30.00,13.33,18.23,7.51,4.00,5.00,6.83,6.37,20.00,2.50,9.79,26.67,0.00,33.33,4.42,0.00,0.00,0.00,0.00,11.36,0.00,0.00,0.57,23.82,0.00,4.44,2.97,9.49,0.00,0.00,0.88
0,60.75,31.43,13.33,18.12,9.74,5.00,6.50,9.14,6.37,20.00,2.50,9.79,26.45,0.00,33.33,4.33,0.00,0.00,0.00,0.00,11.46,0.00,0.00,0.59,23.04,0.00,4.44,2.86,9.42,0.00,0.00,0.87
0,57.94,28.57,6.67,17.17,12.24,6.50,8.00,12.38,6.37,20.00,2.50,9.79,27.09,0.00,36.67,4.35,0.00,0.00,0.00,0.00,11.22,0.00,0.00,0.59,22.72,0.00,4.44,2.69,9.22,0.00,0.00,0.86
0,59.14,28.57,6.67,17.85,11.66,6.00,8.00,12.73,6.29,20.00,2.50,9.79,27.31,0.00,38.33,4.45,0.00,0.00,0.00,0.00,11.20,0.00,0.00,0.58,22.95,0.00,4.44,2.76,8.72,0.00,0.00,0.78
0,60.06,31.43,6.67,18.53,10.07,5.00,7.00,9.79,4.66,13.33,2.00,7.47,28.10,0.00,43.33,4.68,0.00,0.00,0.00,0.00,11.68,0.00,0.00,0.63,23.10,0.00,4.44,2.79,9.04,0.00,0.00,0.83
0,60.30,28.57,6.67,18.18,9.68,5.00,6.50,9.53,2.58,6.67,1.00,3.78,28.44,0.00,41.67,4.94,0.00,0.00,0.00,0.00,11.58,0.00,0.00,0.63,23.21,0.00,4.44,2.78,8.97,0.00,0.00,0.87
0,59.52,25.71,6.67,17.58,11.71,6.00,7.50,11.81,2.38,10.00,1.00,3.13,26.97,0.00,38.33,4.47,0.00,0.00,0.00,0.00,11.66,0.00,0.00,0.63,22.64,0.00,4.44,2.67,8.77,0.00,0.00,0.81
0,58.66,25.71,6.67,17.30,11.84,6.00,7.50,11.84,2.69,10.00,1.00,3.51,26.55,0.00,40.00,4.29,0.00,0.00,0.00,0.00,11.71,0.00,0.00,0.65,22.35,0.00,4.44,2.55,8.92,0.00,0.00,0.81
0,54.50,21.43,3.33,15.83,11.85,6.00,7.50,11.84,2.70,10.00,1.00,3.52,26.42,0.00,36.67,4.11,0.00,0.00,0.00,0.00,11.71,0.00,0.00,0.65,21.83,0.00,4.44,2.41,9.02,0.00,0.00,0.83
0,56.31,24.29,3.33,16.74,11.86,6.00,7.50,11.84,2.70,10.00,1.00,3.52,25.03,0.00,31.67,3.79,0.00,0.00,0.00,0.00,12.19,0.00,0.00,0.71,22.27,0.00,6.67,2.63,9.26,0.00,0.00,0.84
0,57.54,25.71,3.33,17.41,11.86,6.00,7.50,11.84,2.70,10.00,1.00,3.52,25.70,0.00,33.33,3.87,0.00,0.00,0.00,0.00,12.20,0.00,0.00,0.71,22.32,0.00,6.67,2.66,9.25,0.00,0.00,0.85
0,58.48,25.71,0.00,18.20,13.75,7.00,8.50,13.91,2.70,10.00,1.00,3.52,25.98,0.00,31.67,3.96,0.00,0.00,0.00,0.00,12.35,0.00,0.00,0.73,21.68,0.00,6.67,2.61,9.26,0.00,0.00,0.85
0,57.76,25.71,0.00,17.47,16.26,8.00,10.00,17.64,4.32,16.67,1.50,5.05,26.36,0.00,36.67,3.86,0.00,0.00,0.00,0.00,12.34,0.00,0.00,0.73,21.42,0.00,4.44,2.48,9.33,0.00,0.00,0.89
0,57.95,25.71,0.00,17.56,16.57,8.00,10.00,17.88,6.87,26.67,2.50,8.43,26.18,0.00,38.33,3.78,0.00,0.00,0.00,0.00,12.40,0.00,0.00,0.74,20.93,0.00,4.44,2.45,9.46,0.00,0.00,0.93
0,59.66,27.14,0.00,18.51,16.58,8.00,10.00,17.88,7.73,30.00,3.00,10.93,26.49,0.00,38.33,3.85,0.00,0.00,0.00,0.00,12.43,0.00,0.00,0.74,20.78,0.00,4.44,2.41,9.31,0.00,0.00,0.90
0,60.31,28.57,0.00,18.61,16.58,8.00,10.00,17.88,7.76,30.00,3.00,10.93,26.72,0.00,43.33,3.91,0.00,0.00,0.00,0.00,12.64,0.00,0.00,0.75,21.55,0.00,4.44,2.52,9.35,0.00,0.00,0.91
0,61.22,30.00,0.00,19.09,16.58,8.00,10.00,17.88,7.77,30.00,3.00,10.93,26.92,0.00,43.33,4.00,0.00,0.00,0.00,0.00,12.96,0.00,0.00,0.80,21.74,0.00,4.44,2.55,9.59,0.00,0.00,0.95
0,58.06,28.57,0.00,16.84,16.58,8.00,10.00,17.88,7.77,30.00,3.00,10.93,27.36,0.00,43.33,4.12,0.00,0.00,0.00,0.00,13.17,0.00,0.00,0.81,21.10,0.00,2.22,2.32,9.75,0.00,0.00,0.99
0,58.29,27.14,0.00,16.79,16.54,8.00,10.00,17.88,7.78,30.00,3.00,10.93,27.29,0.00,43.33,4.07,0.00,0.00,0.00,0.00,13.03,0.00,0.00,0.82,21.06,0.00,2.22,2.27,10.09,0.00,0.00,1.09
0,57.78,27.14,0.00,16.60,16.11,7.50,9.50,17.81,7.77,30.00,3.00,10.93,27.64,0.00,46.67,4.12,0.00,0.00,0.00,0.00,13.34,0.00,0.00,0.85,21.00,0.00,2.22,2.19,10.06,0.00,0.00,1.11
0,58.72,28.57,0.00,16.70,15.75,7.50,9.50,17.68,7.79,30.00,3.00,10.93,27.12,0.00,45.00,3.88,0.00,0.00,0.00,0.00,13.17,0.00,0.00,0.82,20.34,0.00,2.22,2.09,9.97,0.00,0.00,1.07
0,57.19,25.71,0.00,16.08,15.21,7.00,9.00,17.52,7.79,30.00,3.00,10.93,26.35,0.00,43.33,3.73,0.00,0.00,0.00,0.00,13.08,0.00,0.00,0.83,20.09,0.00,2.22,2.14,10.08,0.00,0.00,1.09
0,57.93,25.71,0.00,16.48,13.25,6.00,8.00,15.33,7.79,30.00,3.00,10.93,26.43,0.00,43.33,3.82,0.00,0.00,0.00,0.00,12.81,0.00,0.00,0.80,19.97,0.00,2.22,2.09,10.02,0.00,0.00,1.05
0,60.23,25.71,0.00,17.54,11.13,5.00,6.00,12.72,7.79,30.00,3.00,10.93,26.44,0.00,41.67,3.79,0.00,0.00,0.00,0.00,12.54,0.00,0.00,0.78,19.25,0.00,2.22,1.99,10.06,0.00,0.00,1.10
0,59.21,25.71,3.33,17.28,8.83,4.00,4.00,10.21,7.78,30.00,3.00,10.93,26.28,0.00,41.67,3.77,0.00,0.00,0.00,0.00,12.66,0.00,0.00,0.80,19.12,0.00,2.22,1.92,10.20,0.00,0.00,1.14
0,58.17,22.86,3.33,16.41,7.29,3.00,3.50,8.35,7.79,30.00,3.00,10.93,25.20,0.00,38.33,3.57,0.00,0.00,0.00,0.00,12.42,0.00,0.00,0.79,19.14,0.00,2.22,1.91,10.12,0.00,0.00,1.16
0,58.42,24.29,3.33,16.26,7.27,3.00,3.50,8.35,7.79,30.00,3.00,10.93,24.74,0.00,36.67,3.28,0.00,0.00,0.00,0.00,12.41,0.00,0.00,0.77,18.92,0.00,2.22,1.90,10.18,0.00,0.00,1.16
0,56.73,22.86,3.33,15.61,5.46,2.00,2.50,6.28,6.49,23.33,2.00,9.76,25.02,0.00,36.67,3.32,0.00,0.00,0.00,0.00,12.58,0.00,0.00,0.80,18.92,0.00,2.22,1.89,10.17,0.00,0.00,1.16
0,57.66,25.71,6.67,16.05,6.54,3.00,3.50,7.12,5.60,20.00,2.00,7.44,25.42,0.00,36.67,3.49,0.00,0.00,0.00,0.00,12.67,0.00,0.00,0.79,18.94,0.00,2.22,1.89,9.98,0.00,0.00,1.13
0,61.20,27.14,6.67,17.79,7.09,3.50,3.50,7.38,5.52,20.00,2.00,7.42,25.61,0.00,40.00,3.66,0.00,0.00,0.00,0.00,12.70,0.00,0.00,0.80,18.71,0.00,2.22,1.83,10.02,0.00,0.00,1.16
0,59.96,24.29,6.67,17.21,7.87,4.00,4.00,7.55,5.52,20.00,2.00,7.42,25.70,0.00,41.67,3.73,0.00,0.00,0.00,0.00,12.29,0.00,0.00,0.75,18.03,0.00,0.00,1.63,9.96,0.00,0.00,1.23
0,59.83,24.29,6.67,16.95,10.20,5.50,6.00,9.36,5.53,20.00,2.00,7.42,25.61,0.00,43.33,3.79,0.00,0.00,0.00,0.00,12.20,0.00,0.00,0.75,17.82,0.00,0.00,1.57,10.02,0.00,0.00,1.26
0,58.01,22.86,6.67,16.11,11.07,6.00,7.00,11.96,5.54,20.00,2.00,7.42,25.94,0.00,43.33,3.89,0.00,0.00,0.00,0.00,12.31,0.00,0.00,0.75,18.16,0.00,0.00,1.58,10.16,0.00,0.00,1.29
0,56.64,21.43,6.67,15.10,10.57,6.50,7.50,9.64,4.26,13.33,1.50,5.99,25.78,0.00,40.00,4.24,0.00,0.00,0.00,0.00,12.17,0.00,0.00,0.76,17.67,0.00,0.00,1.61,10.09,0.00,0.00,1.31
0,58.65,21.43,10.00,15.73,10.10,6.00,7.00,9.22,2.63,6.67,1.00,3.72,26.16,0.00,41.67,4.31,0.00,0.00,0.00,0.00,12.22,0.00,0.00,0.74,18.14,0.00,0.00,1.61,10.19,0.00,0.00,1.31
0,56.96,20.00,10.00,14.76,10.10,6.00,7.00,9.22,0.53,0.00,0.00,0.02,25.86,0.00,40.00,4.22,0.00,0.00,0.00,0.00,12.22,0.00,0.00,0.76,17.84,0.00,0.00,1.54,10.08,0.00,0.00,1.33
0,55.53,18.57,10.00,14.17,12.47,7.00,8.50,11.51,2.30,10.00,1.00,2.89,25.27,0.00,38.33,4.07,0.00,0.00,0.00,0.00,12.22,0.00,0.00,0.76,17.42,0.00,0.00,1.45,10.33,0.00,0.00,1.36
0,53.63,17.14,10.00,13.47,15.39,8.50,10.50,14.75,3.63,16.67,1.00,4.54,25.38,0.00,38.33,4.10,0.00,0.00,0.00,0.00,12.04,0.00,0.00,0.72,17.57,0.00,0.00,1.45,10.53,0.00,0.00,1.43
0,55.50,18.57,10.00,14.00,16.26,9.00,11.00,16.47,4.37,23.33,1.00,5.08,25.87,0.00,41.67,4.10,0.00,0.00,0.00,0.00,12.08,0.00,0.00,0.71,17.29,0.00,0.00,1.41,10.80,0.00,0.00,1.49
0,56.96,18.57,10.00,14.63,16.29,9.00,11.00,16.48,4.41,23.33,1.00,5.08,26.18,0.00,45.00,4.28,0.00,0.00,0.00,0.00,12.20,0.00,0.00,0.73,17.23,0.00,0.00,1.40,10.68,0.00,0.00,1.45
0,55.64,18.57,10.00,14.37,16.29,9.00,11.00,16.48,4.40,23.33,1.00,5.08,25.70,0.00,41.67,4.21,0.00,0.00,0.00,0.00,12.47,0.00,0.00,0.73,17.71,0.00,0.00,1.52,10.75,0.00,0.00,1.44
0,54.32,15.71,10.00,13.81,18.20,10.00,12.00,18.61,4.39,23.33,1.00,5.08,25.77,0.00,41.67,4.33,0.00,0.00,0.00,0.00,12.57,0.00,0.00,0.78,17.98,0.00,0.00,1.55,11.09,0.00,0.00,1.51
0,54.56,14.29,10.00,13.69,19.68,11.00,13.50,19.96,5.28,26.67,1.50,5.64,25.73,0.00,41.67,4.33,0.00,0.00,0.00,0.00,13.08,0.00,0.00,0.83,18.01,0.00,0.00,1.48,11.36,0.00,0.00,1.65
0,54.71,14.29,10.00,14.00,19.77,11.00,13.50,19.98,7.22,33.33,2.50,9.39,26.00,0.00,45.00,4.36,0.00,0.00,0.00,0.00,13.16,0.00,0.00,0.83,18.13,0.00,0.00,1.48,11.56,0.00,0.00,1.76
0,53.27,14.29,10.00,13.36,19.76,11.00,13.50,19.98,9.25,43.33,3.00,12.46,26.44,0.00,46.67,4.41,0.00,0.00,0.00,0.00,13.16,0.00,0.00,0.84,18.44,0.00,0.00,1.54,11.57,0.00,0.00,1.75
0,52.06,11.43,6.67,12.16,19.75,11.00,13.50,19.98,9.48,43.33,3.00,12.70,26.69,0.00,45.00,4.59,0.00,0.00,0.00,0.00,13.34,0.00,0.00,0.88,18.33,0.00,0.00,1.57,11.53,0.00,0.00,1.79
0,53.52,12.86,6.67,12.42,19.75,11.00,13.50,19.98,9.49,43.33,3.00,12.71,26.01,0.00,41.67,4.51,0.00,0.00,0.00,0.00,13.31,0.00,0.00,0.87,18.11,0.00,0.00,1.54,11.45,0.00,0.00,1.75
0,53.28,11.43,6.67,12.43,19.75,11.00,13.50,19.98,9.49,43.33,3.00,12.71,26.02,0.00,40.00,4.58,0.00,0.00,0.00,0.00,13.39,0.00,0.00,0.89,17.91,0.00,0.00,1.53,11.23,0.00,0.00,1.76
0,52.34,11.43,6.67,11.85,19.69,11.00,13.50,19.97,9.48,43.33,3.00,12.71,26.04,0.00,40.00,4.57,0.00,0.00,0.00,0.00,13.41,0.00,0.00,0.89,17.83,0.00,0.00,1.53,11.37,0.00,0.00,1.81
0,50.54,8.57,3.33,11.28,18.63,10.50,12.50,19.10,9.48,43.33,3.00,12.71,25.88,0.00,40.00,4.48,0.00,0.00,0.00,0.00,13.61,0.00,0.00,0.90,18.94,0.00,0.00,1.64,11.45,0.00,0.00,1.84
0,46.98,7.14,3.33,9.59,17.80,9.50,12.50,18.65,9.48,43.33,3.00,12.71,25.96,0.00,38.33,4.44,0.00,0.00,0.00,0.00,13.55,0.00,0.00,0.91,19.04,0.00,0.00,1.68,11.46,0.00,0.00,1.84
0,48.14,8.57,3.33,9.70,17.27,9.00,12.00,18.48,9.48,43.33,3.00,12.71,26.59,0.00,40.00,4.50,0.00,0.00,0.00,0.00,13.85,0.00,0.00,0.96,19.08,0.00,0.00,1.66,11.32,0.00,0.00,1.82
0,48.78,8.57,3.33,9.96,15.91,8.00,10.50,17.44,9.48,43.33,3.00,12.71,27.31,0.00,40.00,4.78,0.00,0.00,0.00,0.00,14.39,0.00,0.00,1.00,19.76,0.00,2.22,1.78,11.37,0.00,0.00,1.80
0,48.58,8.57,3.33,9.93,13.55,7.00,8.50,15.02,9.48,43.33,3.00,12.71,26.54,0.00,38.33,4.49,0.00,0.00,0.00,0.00,14.63,0.00,0.00,1.03,19.82,0.00,2.22,1.81,11.64,0.00,0.00,1.82
0,48.90,8.57,3.33,9.94,10.84,5.50,6.50,12.08,9.46,43.33,3.00,12.71,25.74,0.00,38.33,4.11,0.00,0.00,0.00,0.00,14.55,0.00,0.00,1.01,19.56,0.00,2.22,1.74,11.95,0.00,0.00,1.95
0,46.72,7.14,0.00,8.69,10.07,5.00,6.50,10.77,9.47,43.33,3.00,12.71,25.84,0.00,38.33,4.15,0.00,0.00,0.00,0.00,14.39,0.00,0.00,1.00,19.59,0.00,2.22,1.73,12.27,0.00,0.00,2.04
0,47.48,8.57,0.00,8.95,10.03,5.00,6.50,10.77,9.48,43.33,3.00,12.71,25.22,0.00,38.33,4.04,0.00,0.00,0.00,0.00,14.34,0.00,0.00,1.00,19.27,0.00,2.22,1.73,12.32,0.00,0.00,2.02
1,47.94,11.43,0.00,9.35,8.13,4.00,5.50,8.63,8.07,36.67,2.00,10.36,24.87,0.00,36.67,3.98,0.00,0.00,0.00,0.00,15.44,0.00,0.00,1.18,18.61,0.00,2.22,1.66,12.37,0.00,0.00,2.01
1,51.76,15.71,6.67,10.78,6.01,3.00,3.50,6.02,6.42,26.67,2.00,8.31,24.97,0.00,36.67,4.02,0.00,0.00,0.00,0.00,16.05,0.00,0.00,1.22,18.97,0.00,2.22,1.72,12.22,0.00,0.00,1.94
1,50.96,15.71,6.67,10.80,4.93,2.50,4.00,3.74,5.64,20.00,2.00,7.67,24.37,0.00,33.33,3.90,0.00,0.00,0.00,0.00,16.60,0.00,0.00,1.33,19.50,0.00,2.22,1.82,11.73,0.00,0.00,1.81
1,53.37,21.43,13.33,11.17,6.60,3.50,5.00,6.07,5.55,20.00,2.00,7.63,23.98,0.00,30.00,3.76,0.00,0.00,0.00,0.00,20.91,6.67,5.00,3.28,20.34,0.00,4.44,1.93,11.85,0.00,0.00,1.88
1,60.84,27.14,26.67,15.45,7.45,4.00,6.00,6.64,5.54,20.00,2.00,7.63,24.57,0.00,33.33,3.85,0.00,0.00,0.00,0.00,23.65,13.33,5.00,4.14,20.65,0.00,6.67,2.19,11.91,0.00,0.00,1.89
1,65.74,31.43,30.00,20.76,7.33,5.00,6.00,5.81,5.53,20.00,2.00,7.63,25.52,0.00,36.67,4.14,0.00,0.00,0.00,0.00,32.24,23.33,15.00,10.89,22.22,0.00,11.11,2.46,11.84,0.00,0.00,1.89
1,72.43,35.71,36.67,25.97,7.24,4.50,6.00,5.86,5.53,20.00,2.00,7.63,26.86,0.00,40.00,4.36,0.00,0.00,0.00,0.00,35.46,33.33,15.00,12.28,23.16,0.00,11.11,2.83,11.75,0.00,0.00,1.80
1,76.30,40.00,40.00,29.38,9.15,5.50,7.50,8.28,3.82,13.33,1.00,6.06,28.25,0.00,43.33,5.11,0.00,0.00,0.00,0.00,39.01,40.00,20.00,13.93,24.05,0.00,11.11,3.01,12.25,0.00,0.00,1.98
1,81.42,44.29,43.33,33.08,9.70,5.50,7.50,8.32,2.74,10.00,0.50,3.76,32.65,10.00,50.00,8.19,0.00,0.00,0.00,0.00,44.59,50.00,25.00,15.89,25.07,0.00,15.56,3.23,13.48,3.33,0.00,2.15
1,85.00,47.14,46.67,37.24,12.57,7.00,9.50,11.39,3.70,13.33,1.00,4.41,36.08,20.00,53.33,10.25,0.00,0.00,0.00,0.00,48.17,56.67,30.00,17.66,27.78,2.22,20.00,4.44,14.50,3.33,0.00,2.88
1,91.62,51.43,56.67,44.04,14.79,8.00,11.50,14.95,5.28,20.00,1.50,6.62,38.62,25.00,58.33,10.77,0.00,0.00,0.00,0.00,52.10,60.00,35.00,20.04,32.31,6.67,26.67,6.03,15.34,3.33,0.00,3.06
1,95.32,55.71,56.67,45.95,17.22,9.50,13.00,17.83,5.81,23.33,1.50,6.96,44.28,40.00,65.00,15.47,0.00,0.00,0.00,0.00,57.05,70.00,35.00,23.94,39.87,17.78,37.78,10.40,16.38,3.33,0.00,3.78
1,103.31,61.43,73.33,53.13,19.30,10.50,14.50,20.39,5.82,23.33,1.50,6.96,48.99,50.00,71.67,18.11,1.38,1.00,5.00,3.85,61.21,80.00,35.00,26.58,44.06,20.00,46.67,12.41,17.35,3.33,0.00,4.02
1,110.08,67.14,76.67,59.10,22.04,11.50,16.50,24.43,5.84,23.33,1.50,6.96,50.84,50.00,75.00,19.41,1.48,1.00,5.00,3.90,65.98,86.67,40.00,29.18,51.53,26.67,55.56,17.85,18.40,3.33,0.00,4.38
1,114.50,70.00,83.33,63.15,24.40,12.50,19.00,27.80,6.91,26.67,2.00,7.78,51.63,50.00,78.33,19.59,1.48,1.00,5.00,3.90,71.97,100.00,50.00,30.98,55.20,28.89,60.00,22.46,19.63,3.33,0.00,4.67
1,118.13,74.29,86.67,65.60,26.23,13.50,20.00,30.46,8.96,33.33,3.00,12.04,53.93,60.00,78.33,20.91,1.48,1.00,5.00,3.90,77.53,113.33,65.00,33.10,61.78,37.78,64.44,28.05,20.30,3.33,0.00,4.96
1,121.24,74.29,93.33,69.71,26.27,13.50,20.00,30.47,9.64,36.67,3.00,12.96,56.97,65.00,81.67,23.58,1.48,1.00,5.00,3.90,80.01,120.00,65.00,33.98,63.45,40.00,64.44,30.88,21.16,3.33,0.00,5.26
1,130.18,77.14,103.33,78.43,26.26,13.50,20.00,30.47,9.66,36.67,3.00,12.97,58.66,65.00,83.33,24.73,2.92,2.00,10.00,7.82,85.17,130.00,75.00,36.34,70.16,44.44,71.11,38.39,21.53,3.33,0.00,5.47
1,136.68,81.43,110.00,83.12,26.26,13.50,20.00,30.47,9.66,36.67,3.00,12.97,65.41,80.00,86.67,33.94,2.97,2.00,10.00,7.84,91.21,143.33,80.00,39.39,84.47,53.33,77.78,59.08,21.76,3.33,0.00,5.53
1,140.00,87.14,113.33,84.64,26.25,13.50,20.00,30.47,9.66,36.67,3.00,12.97,65.39,80.00,86.67,34.07,4.41,3.50,15.00,11.79,95.18,150.00,80.00,40.17,91.01,60.00,88.89,64.79,22.27,3.33,0.00,5.52
1,146.13,90.00,123.33,89.96,26.25,13.50,20.00,30.47,9.65,36.67,3.00,12.97,67.48,80.00,90.00,34.69,4.46,3.50,15.00,11.80,99.32,156.67,90.00,41.95,94.65,64.44,95.56,67.95,22.95,3.33,0.00,5.78
1,151.64,91.43,133.33,93.86,26.23,13.50,20.00,30.47,9.65,36.67,3.00,12.97,68.44,80.00,91.67,34.95,4.47,3.50,15.00,11.80,101.02,160.00,90.00,42.35,100.39,66.67,100.00,72.79,23.16,3.33,0.00,5.87
1,148.59,88.57,126.67,93.01,26.23,13.50,20.00,30.47,9.64,36.67,3.00,12.97,70.16,80.00,95.00,35.55,4.75,3.50,15.00,11.97,103.79,166.67,90.00,43.44,108.44,71.11,106.67,79.85,23.41,3.33,0.00,5.92
1,150.11,90.00,130.00,93.72,25.64,13.00,19.00,30.27,9.64,36.67,3.00,12.97,74.24,85.00,101.67,38.50,4.78,3.50,15.00,11.97,105.86,170.00,90.00,44.80,113.58,75.56,115.56,82.51,25.02,6.67,0.00,6.77
1,153.58,88.57,130.00,98.92,23.58,12.00,17.50,27.93,9.64,36.67,3.00,12.97,74.18,85.00,101.67,38.53,4.78,3.50,15.00,11.97,107.59,173.33,85.00,46.40,119.01,80.00,117.78,86.46,25.89,6.67,0.00,6.95
1,154.35,88.57,123.33,98.56,23.23,12.00,17.00,27.90,9.64,36.67,3.00,12.97,75.27,90.00,101.67,39.26,4.78,3.50,15.00,11.97,109.38,173.33,85.00,48.42,125.75,86.67,124.44,94.08,26.23,6.67,0.00,7.05
1,154.62,88.57,130.00,97.97,21.66,10.50,15.50,26.91,9.64,36.67,3.00,12.97,76.24,90.00,100.00,40.05,5.66,4.00,17.50,13.33,108.30,176.67,85.00,45.61,128.33,91.11,126.67,96.54,26.75,6.67,0.00,7.18
1,153.82,87.14,126.67,96.40,21.05,10.00,15.00,25.90,9.64,36.67,3.00,12.97,78.62,95.00,105.00,41.34,6.23,4.50,20.00,15.90,107.47,170.00,85.00,44.67,132.75,95.56,133.33,99.33,27.43,6.67,0.00,7.42
1,152.94,84.29,126.67,96.66,20.95,10.00,15.00,25.70,9.61,36.67,3.00,12.97,77.03,95.00,100.00,40.76,6.55,5.00,20.00,15.90,106.77,170.00,85.00,44.08,137.76,102.22,140.00,103.49,27.20,6.67,0.00,7.28
1,153.18,84.29,130.00,96.42,22.72,11.00,16.50,28.00,8.42,33.33,2.50,11.29,76.50,95.00,96.67,40.67,7.72,6.00,25.00,19.85,108.04,170.00,85.00,44.53,143.52,106.67,140.00,109.71,27.65,6.67,0.00,7.25
1,153.88,87.14,136.67,94.00,20.92,10.00,15.00,25.88,8.42,33.33,3.00,11.87,71.72,80.00,93.33,36.06,7.75,6.00,25.00,19.86,107.49,166.67,90.00,44.63,145.95,111.11,144.44,111.96,26.14,3.33,0.00,6.44
1,155.37,88.57,140.00,95.13,18.94,9.00,13.00,23.39,8.09,33.33,2.50,11.20,74.55,85.00,98.33,37.80,7.75,6.00,25.00,19.86,106.69,166.67,85.00,44.04,146.97,111.11,148.89,113.91,26.52,3.33,0.00,6.67
1,152.34,87.14,143.33,91.00,17.50,8.50,12.00,21.88,7.59,30.00,2.50,10.81,68.19,65.00,93.33,33.22,8.18,6.50,25.00,20.22,105.14,163.33,85.00,41.75,146.33,106.67,151.11,113.59,25.54,3.33,0.00,5.84
1,151.29,84.29,140.00,90.84,16.61,8.00,11.00,19.10,7.55,30.00,2.50,10.81,65.28,60.00,91.67,31.46,6.93,5.50,20.00,16.73,107.23,166.67,95.00,41.22,147.04,106.67,146.67,115.37,25.13,3.33,0.00,5.62
1,149.93,82.86,140.00,91.59,14.77,7.50,10.00,16.65,8.77,36.67,3.00,12.12,66.06,60.00,91.67,31.47,6.95,5.50,20.00,16.33,105.80,160.00,90.00,40.03,144.69,106.67,142.22,113.91,24.50,3.33,0.00,5.39
1,152.98,85.71,140.00,91.31,12.29,6.00,7.50,13.10,10.85,43.33,4.00,15.80,65.85,60.00,90.00,31.40,8.27,6.00,22.50,20.98,107.51,163.33,90.00,41.70,144.16,111.11,144.44,113.35,24.72,3.33,0.00,5.48
1,160.91,88.57,146.67,98.76,10.21,5.00,6.00,10.12,8.97,36.67,3.00,13.52,69.39,70.00,96.67,33.43,8.33,6.00,22.50,21.00,104.98,156.67,80.00,41.03,139.75,104.44,146.67,106.00,23.91,3.33,0.00,5.36
1,163.46,90.00,153.33,102.17,10.05,5.00,6.00,10.08,7.21,30.00,2.50,9.85,65.48,55.00,91.67,31.36,8.33,6.00,22.50,21.00,106.08,156.67,80.00,40.91,137.22,100.00,146.67,104.10,23.84,3.33,0.00,5.15
1,161.93,91.43,150.00,98.81,10.07,5.00,6.00,10.08,7.17,30.00,2.50,9.84,66.43,60.00,95.00,30.00,7.02,5.00,17.50,17.34,104.54,150.00,70.00,40.97,139.85,104.44,144.44,106.80,24.69,6.67,0.00,5.71
1,155.66,91.43,140.00,92.30,10.08,5.00,6.00,10.08,7.17,30.00,2.50,9.84,64.34,60.00,98.33,24.17,8.24,6.50,22.50,20.99,103.08,150.00,65.00,39.48,131.10,102.22,144.44,90.47,24.62,6.67,0.00,5.75
1,159.01,92.86,143.33,96.57,10.08,5.00,6.00,10.08,7.17,30.00,2.50,9.84,66.25,60.00,106.67,24.14,8.29,6.50,22.50,20.81,103.26,153.33,80.00,40.22,126.46,93.33,144.44,83.27,24.79,6.67,0.00,5.68
1,163.82,95.71,143.33,100.59,10.09,5.00,6.00,10.08,7.17,30.00,2.50,9.84,68.20,70.00,108.33,25.53,8.32,6.50,22.50,20.94,102.08,153.33,70.00,40.28,125.02,91.11,142.22,82.24,24.96,6.67,0.00,5.93
1,161.56,97.14,143.33,98.77,10.09,5.00,6.00,10.08,7.17,30.00,2.50,9.84,72.77,80.00,115.00,29.52,10.24,7.50,27.50,27.74,103.03,156.67,70.00,41.31,125.94,97.78,144.44,79.70,25.31,6.67,0.00,6.01
1,166.86,100.00,150.00,102.99,10.09,5.00,6.00,10.08,7.17,30.00,2.50,9.84,72.47,80.00,111.67,30.09,10.11,7.50,27.50,27.67,102.16,156.67,70.00,40.96,125.53,97.78,146.67,78.33,26.15,6.67,0.00,6.26
1,172.26,100.00,156.67,106.72,10.77,5.50,7.00,10.45,7.20,30.00,2.50,9.84,71.46,85.00,110.00,28.78,10.07,7.50,27.50,27.65,101.87,156.67,70.00,40.77,123.33,97.78,148.89,76.33,26.12,3.33,0.00,5.96
1,174.72,102.86,160.00,108.62,11.08,6.00,7.00,10.58,7.19,30.00,2.50,9.84,77.33,95.00,118.33,31.38,11.39,9.00,32.50,31.32,100.56,153.33,75.00,40.43,121.06,97.78,151.11,74.12,25.82,3.33,0.00,5.86
1,177.56,105.71,163.33,112.47,11.08,6.00,7.00,10.58,7.19,30.00,2.50,9.84,82.52,100.00,120.00,37.62,11.71,9.00,32.50,31.65,99.14,156.67,75.00,37.73,117.53,97.78,148.89,69.65,27.30,6.67,0.00,7.03
1,171.07,100.00,153.33,109.85,11.08,6.00,7.00,10.58,7.19,30.00,2.50,9.84,86.23,115.00,125.00,38.96,12.92,9.50,35.00,33.34,101.78,160.00,80.00,40.98,117.92,95.56,148.89,69.65,27.41,6.67,0.00,6.97
1,171.65,100.00,156.67,111.78,10.72,6.00,6.50,10.57,8.85,40.00,3.50,12.21,87.01,115.00,123.33,39.48,12.06,9.00,32.50,32.07,102.93,163.33,85.00,41.64,117.21,93.33,151.11,69.31,27.34,6.67,0.00,7.31
1,168.26,97.14,156.67,109.42,8.36,4.50,4.50,8.69,9.80,46.67,3.50,13.12,92.90,130.00,128.33,44.05,12.04,9.00,32.50,32.06,105.67,166.67,85.00,44.64,114.88,91.11,151.11,66.50,26.58,6.67,0.00,7.07
1,173.68,100.00,163.33,113.44,6.16,3.50,3.00,5.21,9.86,46.67,3.50,13.13,92.89,130.00,126.67,44.39,10.65,7.50,27.50,28.15,110.17,176.67,100.00,48.09,115.56,93.33,155.56,67.62,25.78,6.67,0.00,6.98
1,174.68,101.43,160.00,117.48,6.95,3.50,4.00,6.30,8.56,40.00,2.50,11.96,94.89,130.00,133.33,44.94,10.84,7.50,27.50,28.10,107.82,173.33,90.00,46.31,113.68,86.67,155.56,62.34,26.74,6.67,0.00,7.30
1,177.12,100.00,160.00,120.91,8.25,5.00,5.00,7.31,8.56,43.33,3.00,10.71,90.31,120.00,125.00,43.06,11.84,8.50,32.50,30.99,108.47,170.00,95.00,46.83,110.73,84.44,148.89,59.98,27.28,6.67,0.00,7.71
1,181.32,101.43,166.67,122.14,6.61,4.00,4.00,5.64,8.24,40.00,3.00,10.39,94.36,130.00,128.33,45.45,11.48,8.00,32.50,30.67,108.58,170.00,95.00,46.83,110.07,86.67,146.67,59.13,28.07,6.67,0.00,8.04
1,175.81,98.57,156.67,120.88,6.50,4.00,4.00,5.62,8.23,40.00,3.00,10.39,96.48,130.00,131.67,46.21,11.42,8.00,32.50,30.63,106.46,170.00,90.00,45.67,105.57,80.00,142.22,55.38,27.68,6.67,0.00,8.05
1,172.81,97.14,150.00,115.32,4.40,3.00,3.00,3.31,7.28,36.67,2.50,9.32,95.80,135.00,131.67,46.22,11.42,8.00,32.50,30.63,106.33,173.33,85.00,46.65,105.23,80.00,148.89,55.28,27.40,6.67,0.00,7.94
1,175.48,100.00,160.00,116.68,4.32,3.00,3.00,3.30,5.07,26.67,1.50,5.71,96.24,135.00,130.00,47.63,9.97,7.50,30.00,26.22,104.48,166.67,85.00,45.77,105.68,77.78,153.33,52.62,27.41,6.67,0.00,7.94
1,172.42,97.14,160.00,114.08,4.32,3.00,3.00,3.30,4.78,26.67,1.50,5.35,96.53,125.00,130.00,48.02,9.82,7.50,30.00,25.96,104.14,170.00,75.00,44.76,107.31,77.78,155.56,54.23,26.54,6.67,0.00,7.64
1,169.35,95.71,156.67,110.72,4.32,3.00,3.00,3.30,4.77,26.67,1.50,5.35,97.36,125.00,133.33,47.74,9.81,7.50,30.00,25.96,103.58,170.00,75.00,45.17,107.69,80.00,157.78,53.76,27.52,6.67,0.00,7.78
1,168.68,95.71,163.33,111.62,4.32,3.00,3.00,3.30,4.77,26.67,1.50,5.35,99.58,130.00,135.00,50.18,9.81,7.50,30.00,25.96,104.04,166.67,80.00,45.76,101.58,73.33,155.56,48.64,27.72,13.33,0.00,8.64
1,173.52,94.29,173.33,117.21,4.33,3.00,3.00,3.30,4.77,26.67,1.50,5.35,95.92,120.00,131.67,48.19,8.52,6.00,25.00,22.39,103.85,170.00,80.00,45.59,101.91,75.56,153.33,47.38,27.70,10.00,0.00,8.27
1,174.08,95.71,170.00,119.26,4.98,4.00,4.00,3.64,4.77,26.67,1.50,5.35,97.50,130.00,131.67,49.22,7.45,5.00,20.00,20.65,99.67,153.33,65.00,43.48,99.09,73.33,146.67,45.77,27.82,10.00,0.00,8.35
1,168.30,91.43,163.33,114.69,7.09,5.50,5.50,5.88,4.77,26.67,1.50,5.35,94.77,115.00,128.33,47.03,8.19,6.00,25.00,21.80,99.72,153.33,65.00,44.05,97.21,71.11,142.22,44.97,28.46,10.00,0.00,8.27
1,164.93,85.71,153.33,113.33,7.38,5.50,5.50,6.13,4.77,26.67,1.50,5.35,91.95,105.00,125.00,44.07,6.69,5.00,20.00,16.55,100.28,156.67,70.00,42.93,96.32,68.89,146.67,44.05,28.20,10.00,0.00,8.40
1,169.18,88.57,163.33,115.90,7.38,5.50,5.50,6.13,4.77,26.67,1.50,5.35,95.45,115.00,128.33,46.75,6.42,5.00,20.00,15.34,103.76,166.67,80.00,44.08,93.54,64.44,142.22,42.16,28.61,10.00,0.00,8.59
1,164.88,85.71,156.67,113.05,7.19,5.50,5.00,6.13,4.74,26.67,1.50,5.35,93.26,105.00,126.67,45.29,6.41,5.00,20.00,15.34,104.81,163.33,80.00,44.56,90.63,60.00,140.00,40.44,28.81,10.00,0.00,8.65
1,164.95,84.29,153.33,113.28,6.41,4.50,4.50,5.63,6.79,33.33,2.50,8.78,90.76,95.00,128.33,43.45,5.39,4.00,15.00,12.35,103.19,153.33,75.00,43.21,91.78,62.22,137.78,40.65,27.77,10.00,0.00,8.21
1,164.01,81.43,156.67,114.14,6.41,4.50,4.50,5.63,7.18,36.67,2.50,8.95,83.80,85.00,125.00,36.79,4.93,3.50,15.00,11.39,108.15,156.67,90.00,46.50,92.83,60.00,140.00,40.44,27.17,6.67,0.00,7.56
1,167.83,84.29,163.33,113.16,6.42,4.50,4.50,5.63,7.51,40.00,2.50,9.09,81.37,80.00,121.67,35.93,4.43,3.50,15.00,11.12,102.77,146.67,80.00,44.36,93.40,62.22,142.22,41.69,26.91,6.67,0.00,7.31
1,173.59,88.57,170.00,116.74,6.41,4.50,4.50,5.63,6.24,33.33,1.50,7.16,79.93,65.00,121.67,35.43,3.00,2.50,10.00,7.01,103.94,146.67,80.00,44.70,94.26,64.44,140.00,43.23,27.97,13.33,0.00,7.85
1,179.74,92.86,180.00,121.64,7.52,5.50,5.50,6.36,7.30,30.00,2.50,9.14,76.08,55.00,121.67,32.60,2.95,2.50,10.00,7.00,99.27,143.33,70.00,40.74,92.25,60.00,137.78,41.46,28.33,13.33,0.00,8.24
1,175.92,90.00,170.00,121.12,7.66,5.50,5.50,6.42,8.95,36.67,3.50,12.78,74.26,50.00,120.00,30.86,4.23,4.00,15.00,10.54,93.53,133.33,55.00,36.82,88.62,57.78,133.33,39.29,28.81,13.33,0.00,8.49
1,169.52,85.71,166.67,115.65,7.26,5.50,5.00,6.42,8.99,36.67,3.50,12.79,75.73,60.00,118.33,32.33,4.39,4.00,15.00,10.94,94.88,133.33,55.00,39.92,88.82,60.00,128.89,40.20,28.71,13.33,0.00,8.39
1,170.68,88.57,163.33,115.45,5.14,4.00,3.50,4.01,7.54,26.67,3.00,10.94,76.82,60.00,121.67,32.85,3.20,3.00,10.00,8.08,93.82,136.67,55.00,38.97,87.90,57.78,128.89,38.74,27.86,13.33,0.00,7.99
1,168.72,87.14,160.00,116.28,4.75,3.50,3.50,3.62,7.32,26.67,3.00,10.74,74.89,55.00,120.00,31.75,3.12,3.00,10.00,8.05,95.53,143.33,60.00,39.84,87.53,55.56,128.89,39.08,26.87,13.33,0.00,7.47
1,172.39,91.43,160.00,116.95,4.76,3.50,3.50,3.62,7.32,26.67,3.00,10.74,75.08,60.00,118.33,31.70,3.12,3.00,10.00,8.05,93.78,136.67,60.00,39.09,89.18,60.00,128.89,40.67,27.62,16.67,0.00,7.98
1,180.35,97.14,170.00,124.63,4.77,3.50,3.50,3.62,7.32,26.67,3.00,10.74,73.15,60.00,116.67,31.13,3.12,3.00,10.00,8.05,93.93,136.67,60.00,40.62,88.61,60.00,131.11,39.54,27.99,16.67,0.00,8.14
1,176.60,95.71,156.67,122.86,4.77,3.50,3.50,3.62,7.32,26.67,3.00,10.74,72.50,50.00,120.00,28.72,3.12,3.00,10.00,8.05,91.67,136.67,55.00,37.55,89.38,60.00,126.67,40.42,27.09,16.67,0.00,7.86
1,174.39,94.29,153.33,122.03,5.45,4.00,4.50,4.00,7.32,26.67,3.00,10.74,71.54,50.00,121.67,28.07,3.12,3.00,10.00,8.05,89.83,130.00,55.00,37.07,85.86,53.33,124.44,38.33,27.31,16.67,0.00,7.94
1,177.08,97.14,160.00,118.83,7.57,5.50,6.00,6.26,7.33,26.67,3.00,10.74,73.26,55.00,121.67,28.43,4.50,4.00,15.00,11.89,92.89,133.33,70.00,38.41,86.08,55.56,124.44,38.81,27.10,16.67,0.00,7.84
1,177.01,95.71,156.67,119.97,7.85,5.50,6.00,6.50,7.32,26.67,3.00,10.74,71.06,50.00,120.00,27.92,4.59,4.00,15.00,11.94,92.75,136.67,70.00,38.84,86.83,55.56,126.67,39.15,25.67,13.33,0.00,7.61
1,173.51,94.29,153.33,115.08,7.87,5.50,6.00,6.50,7.32,26.67,3.00,10.74,69.01,45.00,120.00,24.50,4.60,4.00,15.00,11.94,92.39,133.33,70.00,37.81,81.30,46.67,120.00,35.19,24.67,10.00,0.00,6.33
1,168.09,95.71,153.33,108.70,7.66,5.00,5.50,6.50,7.32,26.67,3.00,10.74,66.98,35.00,113.33,23.93,4.60,4.00,15.00,11.94,91.55,130.00,70.00,37.22,81.25,46.67,120.00,34.61,24.50,10.00,0.00,6.28
1,168.84,97.14,153.33,107.90,5.69,3.50,3.50,5.27,7.32,26.67,3.00,10.74,65.64,35.00,111.67,23.27,3.58,3.00,10.00,8.94,90.13,126.67,70.00,36.44,82.42,46.67,128.89,34.75,23.63,10.00,0.00,6.09
1,169.57,100.00,150.00,107.23,4.85,3.00,3.50,3.68,7.96,26.67,3.00,10.81,65.80,40.00,111.67,23.67,3.01,2.50,10.00,7.85,90.45,126.67,70.00,36.64,81.52,46.67,126.67,33.82,23.26,10.00,0.00,5.72
1,167.63,98.57,140.00,106.65,4.81,3.00,3.50,3.68,9.47,33.33,4.00,13.46,60.98,30.00,108.33,19.97,2.97,2.50,10.00,7.84,86.10,110.00,55.00,35.29,81.98,48.89,128.89,34.51,22.09,10.00,0.00,5.41
1,171.13,100.00,140.00,111.51,4.82,3.00,3.50,3.68,9.50,33.33,4.00,13.47,62.48,30.00,111.67,20.43,2.97,2.50,10.00,7.84,84.67,110.00,55.00,34.27,81.75,51.11,131.11,34.17,20.99,10.00,0.00,5.11
1,171.00,101.43,136.67,109.17,4.82,3.00,3.50,3.68,7.61,26.67,3.00,10.37,59.36,30.00,101.67,19.68,2.97,2.50,10.00,7.84,83.31,113.33,55.00,33.64,81.42,51.11,133.33,34.47,20.60,10.00,0.00,4.99
1,174.22,102.86,140.00,115.72,5.91,4.00,4.50,4.34,8.46,26.67,3.50,11.10,62.73,40.00,101.67,22.06,4.29,4.00,15.00,11.52,78.99,110.00,45.00,30.19,79.10,46.67,126.67,33.90,21.03,10.00,0.00,5.15
1,176.48,102.86,140.00,118.81,5.98,4.00,4.50,4.35,8.90,26.67,4.00,13.21,64.67,45.00,105.00,22.50,4.45,4.00,15.00,11.80,81.53,116.67,45.00,30.52,73.89,40.00,122.22,31.22,20.43,10.00,0.00,4.86
1,177.58,100.00,136.67,124.03,5.97,4.00,4.50,4.35,8.91,26.67,4.00,13.21,63.65,45.00,103.33,21.74,4.46,4.00,15.00,11.80,79.73,120.00,40.00,28.77,70.18,35.56,120.00,26.58,19.40,6.67,0.00,4.13
1,177.58,100.00,136.67,125.97,5.10,3.50,3.50,3.75,7.03,20.00,3.00,10.16,65.83,55.00,101.67,22.92,5.35,5.00,17.50,13.17,79.97,116.67,40.00,29.07,69.78,35.56,122.22,26.33,18.15,3.33,0.00,3.58
1,177.68,101.43,136.67,122.71,4.73,3.00,3.50,3.56,4.91,13.33,2.00,6.27,66.26,55.00,106.67,23.07,5.04,4.50,15.00,14.40,80.17,116.67,40.00,29.14,71.09,33.33,124.44,27.76,18.23,3.33,0.00,3.48
1,178.66,102.86,140.00,120.41,4.72,3.00,3.50,3.56,4.78,13.33,2.00,6.22,66.08,50.00,105.00,22.52,4.49,4.00,15.00,11.83,78.71,110.00,40.00,26.77,68.21,35.56,120.00,25.52,18.33,3.33,0.00,3.55
1,180.41,102.86,143.33,121.88,4.72,3.00,3.50,3.56,4.79,13.33,2.00,6.22,65.44,45.00,103.33,21.89,4.47,4.00,15.00,11.82,80.50,113.33,40.00,27.65,69.74,37.78,122.22,26.01,18.54,3.33,0.00,3.69
1,173.20,100.00,130.00,115.06,4.71,3.00,3.50,3.56,4.79,13.33,2.00,6.22,65.35,40.00,101.67,22.01,4.47,4.00,15.00,11.82,79.97,110.00,45.00,29.06,67.88,35.56,117.78,25.29,18.85,3.33,0.00,3.69
1,175.28,100.00,133.33,118.70,4.69,3.00,3.50,3.56,4.79,13.33,2.00,6.22,64.71,35.00,103.33,20.85,4.47,4.00,15.00,11.82,82.14,120.00,50.00,30.10,65.85,33.33,117.78,23.90,18.59,0.00,0.00,3.49
1,169.05,98.57,126.67,112.09,5.78,4.00,4.50,4.26,4.78,13.33,2.00,6.22,66.10,40.00,103.33,22.25,4.47,4.00,15.00,11.82,80.69,116.67,50.00,29.57,66.85,35.56,117.78,24.29,18.41,0.00,0.00,3.39
1,165.60,95.71,126.67,110.01,7.85,5.00,6.00,6.68,4.80,13.33,2.00,6.22,66.58,45.00,98.33,23.35,4.47,4.00,15.00,11.82,80.27,110.00,50.00,27.69,66.42,33.33,115.56,24.48,18.89,0.00,0.00,3.51
1,164.73,92.86,123.33,109.35,7.79,5.00,5.50,6.71,4.80,13.33,2.00,6.22,66.35,45.00,96.67,23.28,4.47,4.00,15.00,11.82,80.29,106.67,50.00,27.34,65.09,33.33,113.33,23.60,18.38,0.00,0.00,3.36
1,165.01,90.00,126.67,110.65,5.78,3.50,3.50,5.43,4.80,13.33,2.00,6.22,64.39,40.00,93.33,22.63,3.19,3.00,10.00,8.33,81.14,113.33,45.00,28.20,66.92,33.33,111.11,24.87,19.52,0.00,0.00,3.75
1,161.48,90.00,120.00,109.43,4.94,3.00,3.50,3.84,4.81,13.33,2.00,6.22,65.58,40.00,96.67,22.84,4.26,4.00,12.50,11.45,78.36,106.67,35.00,25.31,66.27,33.33,111.11,24.50,19.66,0.00,0.00,3.83
1,164.86,90.00,123.33,112.59,4.91,3.00,3.50,3.83,5.91,16.67,2.50,7.07,66.35,40.00,96.67,23.29,4.45,4.00,12.50,11.92,79.48,106.67,40.00,27.05,66.62,33.33,113.33,24.31,19.58,0.00,0.00,3.76
1,166.03,90.00,126.67,112.57,4.92,3.00,3.50,3.83,7.05,23.33,3.00,9.14,67.46,45.00,100.00,24.44,4.46,4.00,12.50,11.92,81.61,116.67,45.00,28.58,68.48,37.78,120.00,24.99,19.77,0.00,0.00,3.99
1,165.11,90.00,130.00,111.68,4.92,3.00,3.50,3.83,7.33,26.67,3.00,9.31,68.42,45.00,103.33,24.84,4.46,4.00,12.50,11.92,86.48,133.33,60.00,30.49,70.98,42.22,115.56,27.39,20.42,0.00,0.00,4.24
1,167.06,88.57,133.33,115.97,4.91,3.00,3.50,3.83,7.07,26.67,3.00,9.24,69.43,40.00,101.67,25.75,4.46,4.00,12.50,11.92,91.91,143.33,80.00,33.29,69.32,37.78,111.11,25.98,19.95,0.00,0.00,4.25
1,164.33,90.00,133.33,112.29,7.06,4.00,5.00,5.91,6.55,23.33,2.50,8.48,70.07,40.00,103.33,26.04,4.46,4.00,12.50,11.92,93.48,150.00,80.00,34.51,68.64,35.56,108.89,24.96,21.29,0.00,0.00,4.64
1,164.03,92.86,140.00,109.62,8.38,5.00,6.00,7.26,6.98,26.67,2.50,9.05,70.34,40.00,105.00,26.11,4.46,4.00,12.50,11.92,93.10,146.67,80.00,34.41,66.47,31.11,102.22,23.19,21.67,0.00,0.00,4.75
1,165.25,92.86,146.67,108.61,8.40,5.00,6.00,7.27,7.00,26.67,2.50,9.05,72.51,40.00,113.33,26.55,4.46,4.00,12.50,11.92,95.38,150.00,80.00,34.94,66.27,31.11,97.78,23.26,22.35,0.00,0.00,4.90
1,162.72,95.71,146.67,104.13,7.39,4.00,5.00,6.67,7.00,26.67,2.50,9.05,70.40,30.00,120.00,24.39,3.44,3.00,7.50,8.92,95.54,150.00,80.00,35.42,66.17,31.11,102.22,22.19,22.42,0.00,0.00,4.85
1,158.06,92.86,143.33,95.02,7.23,4.00,5.00,6.59,4.89,20.00,1.50,5.59,69.64,30.00,121.67,23.85,2.98,2.50,7.50,7.96,93.35,146.67,80.00,35.09,67.10,33.33,108.89,22.25,22.28,0.00,0.00,4.83
1,156.34,95.71,143.33,91.53,7.23,4.00,5.00,6.59,4.83,20.00,1.50,5.58,66.80,25.00,120.00,22.64,2.97,2.50,7.50,7.96,93.54,146.67,85.00,34.22,71.86,40.00,111.11,24.80,22.49,0.00,0.00,5.00
1,152.73,95.71,140.00,85.99,7.23,4.00,5.00,6.59,4.83,20.00,1.50,5.58,65.00,20.00,116.67,22.01,2.97,2.50,7.50,7.96,94.88,153.33,95.00,33.84,74.14,40.00,117.78,26.15,23.61,0.00,0.00,5.32
1,149.40,92.86,133.33,84.23,7.22,4.00,5.00,6.59,4.84,20.00,1.50,5.58,64.40,20.00,118.33,21.92,1.52,1.00,2.50,4.00,97.74,156.67,100.00,36.25,72.38,40.00,120.00,24.35,23.59,0.00,0.00,5.50
1,144.66,88.57,130.00,80.80,7.21,4.00,5.00,6.59,4.84,20.00,1.50,5.58,63.52,20.00,115.00,21.33,1.48,1.00,2.50,3.99,98.38,163.33,100.00,36.44,71.67,40.00,115.56,24.63,22.99,0.00,0.00,5.37
1,148.39,88.57,133.33,84.56,7.44,4.00,5.00,6.63,4.83,20.00,1.50,5.58,64.08,20.00,116.67,21.63,1.47,1.00,2.50,3.99,95.81,160.00,90.00,35.19,74.95,42.22,124.44,25.41,22.63,0.00,0.00,4.94
1,145.59,87.14,133.33,83.80,7.88,4.00,5.00,6.63,4.82,20.00,1.50,5.58,66.25,30.00,118.33,22.84,1.47,1.00,2.50,3.99,95.35,163.33,85.00,32.74,74.73,42.22,122.22,26.08,22.67,0.00,0.00,4.98
1,152.31,90.00,140.00,90.31,9.59,5.00,6.00,8.93,4.82,20.00,1.50,5.58,65.62,30.00,118.33,22.15,1.47,1.00,2.50,3.99,93.01,156.67,80.00,32.14,77.53,44.44,124.44,27.42,22.14,0.00,0.00,4.80
1,153.36,87.14,143.33,90.29,8.78,4.50,5.00,8.37,4.81,20.00,1.50,5.58,65.06,30.00,115.00,22.22,1.47,1.00,2.50,3.99,91.21,150.00,80.00,30.77,76.05,40.00,117.78,26.36,21.88,0.00,0.00,4.77
1,153.96,85.71,143.33,92.34,6.61,3.00,3.50,6.03,4.82,20.00,1.50,5.58,60.33,20.00,110.00,19.81,2.90,2.00,7.50,7.84,93.26,153.33,85.00,31.84,78.59,46.67,124.44,27.61,21.60,0.00,0.00,4.66
1,158.01,90.00,146.67,95.38,6.32,3.00,3.50,5.79,5.42,26.67,1.50,6.02,61.54,25.00,113.33,19.80,2.94,2.00,7.50,7.85,95.75,166.67,90.00,34.08,79.74,48.89,126.67,28.55,21.77,0.00,0.00,4.66
1,157.00,90.00,136.67,96.11,6.32,3.00,3.50,5.78,7.28,36.67,2.50,8.62,62.18,25.00,110.00,20.54,2.95,2.00,7.50,7.85,92.54,153.33,85.00,33.10,80.74,51.11,126.67,29.77,21.57,0.00,0.00,4.58
1,157.20,88.57,136.67,97.82,6.32,3.00,3.50,5.78,7.60,36.67,2.50,8.93,62.41,30.00,110.00,21.46,2.10,1.50,5.00,5.60,91.29,150.00,85.00,32.81,80.46,46.67,137.78,28.63,20.59,0.00,0.00,4.22
1,156.40,91.43,133.33,95.71,6.31,3.00,3.50,5.78,7.62,36.67,2.50,8.93,62.11,30.00,111.67,21.20,1.50,1.00,5.00,3.86,89.57,150.00,80.00,30.96,81.17,46.67,137.78,29.02,20.26,0.00,0.00,4.17
1,156.07,90.00,123.33,101.03,7.59,3.50,4.00,6.57,6.20,33.33,1.50,6.59,60.33,25.00,111.67,19.89,1.47,1.00,5.00,3.86,86.87,140.00,75.00,29.34,80.02,42.22,135.56,28.82,19.71,0.00,0.00,3.89
1,159.42,91.43,133.33,102.85,9.03,4.50,6.00,8.58,7.46,33.33,2.50,9.30,60.73,25.00,110.00,19.93,1.47,1.00,5.00,3.86,83.39,126.67,60.00,27.90,76.45,37.78,133.33,26.31,19.28,0.00,0.00,3.69
1,162.44,95.71,140.00,101.65,9.40,5.00,6.00,8.77,7.68,33.33,2.50,9.55,59.85,25.00,110.00,19.46,1.47,1.00,5.00,3.86,80.25,113.33,45.00,25.88,75.64,37.78,126.67,26.42,19.08,0.00,0.00,3.54
1,162.97,94.29,146.67,101.73,7.58,4.00,5.00,6.83,7.33,33.33,2.00,9.55,58.04,25.00,108.33,18.08,1.47,1.00,5.00,3.86,75.11,103.33,45.00,23.51,80.75,44.44,135.56,29.60,18.34,0.00,0.00,3.44
1,161.63,92.86,136.67,102.31,6.02,3.00,3.50,5.35,5.91,26.67,2.00,7.08,57.60,25.00,108.33,18.06,1.47,1.00,5.00,3.86,75.76,103.33,45.00,23.73,81.19,44.44,137.78,30.04,18.12,0.00,0.00,3.25
1,161.11,91.43,136.67,101.12,5.92,3.00,3.50,5.33,5.90,26.67,2.00,7.07,57.06,25.00,103.33,17.54,1.47,1.00,5.00,3.86,76.59,106.67,45.00,23.98,80.72,46.67,133.33,30.37,17.43,0.00,0.00,3.15
1,158.30,88.57,126.67,100.56,5.92,3.00,3.50,5.33,5.92,26.67,2.00,7.07,55.80,25.00,101.67,17.70,1.47,1.00,5.00,3.86,77.51,110.00,40.00,24.04,79.64,46.67,126.67,30.26,17.09,0.00,0.00,3.06
1,157.39,88.57,126.67,100.22,5.93,3.00,3.50,5.33,5.92,26.67,2.00,7.07,55.66,25.00,95.00,18.06,1.47,1.00,5.00,3.86,77.80,110.00,40.00,24.52,78.64,46.67,122.22,30.30,17.09,0.00,0.00,3.03
1,155.64,87.14,120.00,99.41,5.93,3.00,3.50,5.33,5.92,26.67,2.00,7.07,57.27,25.00,96.67,18.47,1.47,1.00,5.00,3.86,76.99,106.67,40.00,24.37,77.21,42.22,120.00,29.60,16.71,0.00,0.00,2.87
1,158.28,88.57,123.33,103.77,6.78,3.50,4.50,5.60,5.91,26.67,2.00,7.07,56.58,25.00,96.67,18.37,1.47,1.00,5.00,3.86,73.97,96.67,25.00,23.30,75.00,40.00,113.33,28.10,16.28,0.00,0.00,2.84
1,160.83,88.57,126.67,106.33,8.74,5.00,6.50,6.82,5.91,26.67,2.00,7.07,55.62,25.00,93.33,17.99,1.47,1.00,5.00,3.86,73.26,100.00,25.00,22.65,73.94,37.78,108.89,27.50,15.81,0.00,0.00,2.57
1,165.85,92.86,130.00,110.29,9.55,5.50,7.00,8.31,5.91,26.67,2.00,7.07,52.77,20.00,86.67,16.39,1.47,1.00,5.00,3.86,69.99,93.33,20.00,20.22,74.75,37.78,113.33,27.73,15.86,0.00,0.00,2.45
1,160.67,91.43,126.67,105.35,9.38,5.50,7.00,8.28,5.91,26.67,2.00,7.07,52.54,20.00,88.33,16.23,1.47,1.00,5.00,3.86,68.52,90.00,20.00,19.78,70.71,33.33,106.67,25.99,16.08,0.00,0.00,2.60
1,161.50,94.29,130.00,106.04,9.35,5.50,7.00,8.28,5.91,26.67,2.00,7.07,51.88,15.00,90.00,16.18,1.47,1.00,5.00,3.86,68.19,83.33,25.00,19.76,70.36,31.11,104.44,24.81,16.13,0.00,0.00,2.62
1,156.70,92.86,123.33,99.82,7.34,4.50,6.00,6.00,5.91,26.67,2.00,7.07,50.27,10.00,90.00,14.54,1.47,1.00,5.00,3.86,65.79,80.00,25.00,18.65,70.14,31.11,104.44,24.50,15.82,0.00,0.00,2.45
1,151.05,91.43,120.00,94.21,7.22,4.50,6.00,5.97,6.07,26.67,2.00,7.09,51.96,15.00,95.00,15.25,1.47,1.00,5.00,3.86,68.94,90.00,35.00,20.71,70.01,31.11,106.67,24.12,15.91,0.00,0.00,2.50
1,149.28,91.43,113.33,90.96,7.22,4.50,6.00,5.97,6.33,26.67,2.00,7.16,53.15,15.00,95.00,15.72,0.17,0.00,0.00,0.27,71.50,96.67,35.00,22.20,68.37,28.89,106.67,23.55,16.15,0.00,0.00,2.71
1,146.81,88.57,113.33,89.33,7.23,4.50,6.00,5.97,6.17,23.33,2.00,7.16,53.06,10.00,95.00,16.13,1.50,1.00,5.00,5.47,66.48,86.67,25.00,19.09,69.58,31.11,106.67,24.63,16.27,0.00,0.00,2.75
1,146.78,88.57,110.00,88.40,7.23,4.50,6.00,5.97,4.39,13.33,1.00,5.69,51.88,10.00,95.00,15.21,2.27,1.50,5.00,6.79,66.24,86.67,25.00,19.02,66.87,28.89,102.22,22.73,16.09,0.00,0.00,2.79
1,149.64,91.43,110.00,88.44,9.10,5.50,7.00,8.03,4.59,16.67,1.00,4.65,49.83,5.00,90.00,13.32,2.86,2.00,5.00,7.22,66.63,90.00,25.00,19.22,68.71,33.33,95.56,24.50,16.15,0.00,0.00,2.79
1,150.04,90.00,110.00,89.17,9.38,5.50,7.00,8.27,6.59,23.33,2.00,8.24,50.00,5.00,90.00,13.55,3.65,2.50,5.00,8.37,66.78,90.00,25.00,18.82,66.99,33.33,91.11,23.69,16.08,0.00,0.00,2.80
1,149.44,90.00,113.33,85.56,9.39,5.50,7.00,8.27,6.83,23.33,2.00,8.52,51.08,5.00,88.33,14.12,5.37,3.50,10.00,13.95,66.88,90.00,25.00,18.69,71.80,37.78,93.33,30.39,16.29,0.00,0.00,2.85
1,147.48,90.00,106.67,84.79,7.23,4.50,5.00,5.98,5.19,20.00,1.00,5.75,48.92,5.00,81.67,13.76,5.74,3.50,10.00,14.13,66.55,90.00,25.00,18.54,71.97,40.00,93.33,30.39,16.64,0.00,0.00,2.96
1,150.29,88.57,103.33,88.74,6.29,3.50,4.50,5.29,4.53,16.67,1.00,4.89,46.78,5.00,78.33,13.14,7.00,5.50,17.50,15.60,66.23,93.33,25.00,18.69,71.89,40.00,95.56,30.43,16.41,0.00,0.00,2.96
1,150.96,91.43,106.67,89.20,6.27,3.50,4.50,5.29,4.51,16.67,1.00,4.89,47.91,5.00,85.00,13.04,8.28,6.50,22.50,18.78,64.59,86.67,20.00,17.28,71.97,37.78,100.00,29.70,16.63,0.00,0.00,2.90
1,151.63,88.57,106.67,89.48,6.27,3.50,4.50,5.29,4.49,16.67,1.00,4.89,50.44,10.00,86.67,13.68,9.02,8.00,22.50,19.53,64.41,93.33,20.00,17.63,68.32,33.33,97.78,27.36,16.70,0.00,0.00,2.86
1,156.19,91.43,113.33,95.27,6.26,3.50,4.50,5.29,4.47,16.67,1.00,4.88,52.63,20.00,88.33,15.94,10.11,10.00,25.00,20.63,65.86,96.67,25.00,18.56,67.70,31.11,100.00,26.99,16.83,0.00,0.00,2.86
1,155.12,90.00,113.33,95.95,6.26,3.50,4.50,5.29,4.44,16.67,1.00,4.88,52.14,20.00,86.67,15.55,10.78,10.50,25.00,21.34,63.33,93.33,25.00,17.87,69.34,31.11,106.67,26.99,16.89,0.00,0.00,2.83
1,156.42,94.29,116.67,95.18,6.92,4.00,5.50,5.65,4.45,16.67,1.00,4.88,50.98,20.00,83.33,14.84,11.30,10.50,25.00,21.77,61.93,90.00,25.00,17.12,69.91,31.11,111.11,26.77,16.81,0.00,0.00,2.83
1,154.24,97.14,110.00,92.45,8.78,5.50,7.00,7.37,4.46,16.67,1.00,4.88,49.70,20.00,81.67,14.32,12.11,11.50,25.00,22.52,61.56,93.33,25.00,17.21,69.63,31.11,115.56,26.10,16.43,0.00,0.00,2.73
1,152.78,95.71,113.33,92.75,8.39,5.00,6.00,7.31,4.46,16.67,1.00,4.88,50.54,20.00,81.67,14.82,12.68,11.50,25.00,22.90,63.02,100.00,25.00,17.84,67.65,31.11,113.33,25.23,16.17,0.00,0.00,2.62
1,154.76,97.14,113.33,93.29,7.47,4.00,4.50,6.81,4.46,16.67,1.00,4.88,50.35,20.00,81.67,14.80,13.16,12.00,25.00,23.17,60.65,90.00,25.00,16.96,69.24,31.11,113.33,25.82,16.07,0.00,0.00,2.61
1,158.94,100.00,116.67,93.81,5.45,3.00,3.50,4.59,4.46,16.67,1.00,4.88,51.10,20.00,86.67,14.99,13.30,12.00,25.00,23.21,62.61,90.00,25.00,17.39,68.79,31.11,111.11,26.26,15.39,0.00,0.00,2.46
1,162.89,104.29,130.00,94.64,5.40,3.00,3.50,4.58,4.47,16.67,1.00,4.88,50.78,20.00,86.67,14.97,13.81,13.00,25.00,23.73,62.40,90.00,25.00,17.34,69.12,33.33,115.56,26.60,15.14,0.00,0.00,2.36
1,160.68,102.86,126.67,93.19,5.39,3.00,3.50,4.58,6.56,26.67,2.00,8.34,49.33,20.00,83.33,14.32,14.52,13.50,25.00,24.29,64.06,93.33,25.00,17.97,71.49,37.78,117.78,27.97,15.16,0.00,0.00,2.34
1,165.80,105.71,140.00,97.25,5.37,3.00,3.50,4.58,7.19,30.00,2.00,8.78,51.04,25.00,83.33,15.48,15.13,15.00,25.00,24.81,65.10,93.33,20.00,18.52,67.83,35.56,111.11,26.40,14.81,0.00,0.00,2.31
1,172.11,110.00,146.67,101.93,5.37,3.00,3.50,4.58,7.13,30.00,2.00,8.78,51.60,25.00,83.33,15.70,15.52,15.00,25.00,24.99,65.63,93.33,15.00,19.14,68.98,37.78,113.33,26.97,15.04,0.00,0.00,2.30
1,174.58,112.86,150.00,103.02,5.37,3.00,3.50,4.58,7.00,30.00,2.00,8.72,48.34,20.00,80.00,14.15,15.80,15.00,25.00,25.05,61.06,86.67,10.00,15.74,64.92,28.89,106.67,24.65,14.34,0.00,0.00,2.05
1,178.53,115.71,156.67,106.82,6.22,4.00,4.50,5.00,8.80,36.67,2.50,10.31,48.06,20.00,78.33,14.32,15.76,14.50,22.50,24.35,62.13,90.00,10.00,15.92,66.13,28.89,113.33,25.33,14.65,0.00,0.00,2.06
1,179.63,115.71,163.33,107.24,6.27,4.00,4.50,5.00,9.64,40.00,3.00,12.67,47.57,20.00,78.33,13.59,14.90,14.50,20.00,19.61,64.40,93.33,15.00,16.73,63.39,24.44,113.33,22.68,14.51,0.00,0.00,1.98
1,182.89,118.57,180.00,107.33,4.98,3.50,3.50,4.22,8.76,33.33,3.00,11.91,48.15,20.00,78.33,14.05,14.72,14.50,20.00,19.49,65.92,96.67,15.00,17.38,60.71,22.22,108.89,21.16,14.64,0.00,0.00,2.03
1,182.53,121.43,190.00,106.19,4.14,3.00,3.50,2.70,6.76,26.67,2.00,8.49,46.74,20.00,75.00,13.32,14.08,14.00,20.00,18.48,63.14,86.67,15.00,16.52,61.08,20.00,108.89,21.14,14.83,0.00,0.00,2.04
1,183.63,121.43,190.00,108.58,4.11,3.00,3.50,2.70,6.12,23.33,2.00,7.90,46.21,20.00,78.33,12.87,12.66,13.00,15.00,13.81,64.86,96.67,15.00,17.97,55.81,15.56,106.67,14.69,14.96,0.00,0.00,2.12
1,189.56,122.86,200.00,112.84,4.11,3.00,3.50,2.70,6.09,23.33,2.00,7.89,46.77,20.00,81.67,13.08,12.59,13.00,15.00,12.88,66.90,106.67,15.00,18.90,58.17,22.22,111.11,14.76,15.13,0.00,0.00,2.21
1,191.29,122.86,210.00,114.23,4.11,3.00,3.50,2.70,6.09,23.33,2.00,7.89,47.99,20.00,81.67,13.53,12.15,12.00,10.00,12.47,67.36,110.00,15.00,19.20,57.74,20.00,108.89,15.07,15.21,0.00,0.00,2.19
1,185.55,120.00,196.67,111.49,4.11,3.00,3.50,2.70,6.10,23.33,2.00,7.89,48.61,20.00,80.00,13.85,10.99,11.00,2.50,9.18,70.42,116.67,25.00,20.14,57.57,20.00,100.00,15.86,15.45,0.00,0.00,2.26
1,186.82,118.57,196.67,114.78,4.11,3.00,3.50,2.70,6.10,23.33,2.00,7.89,49.14,25.00,78.33,14.44,10.90,10.00,2.50,9.02,69.94,113.33,25.00,20.00,57.24,20.00,102.22,15.53,15.20,0.00,0.00,2.25
1,184.28,117.14,193.33,112.27,5.58,4.50,4.50,3.94,6.10,23.33,2.00,7.89,46.44,15.00,80.00,13.26,10.68,9.00,2.50,8.78,70.84,113.33,25.00,19.88,56.46,20.00,95.56,15.27,15.24,0.00,0.00,2.33
1,184.58,118.57,196.67,111.21,5.76,4.50,4.50,4.04,6.10,23.33,2.00,7.89,45.19,10.00,78.33,11.70,10.28,8.00,0.00,8.06,71.13,113.33,25.00,19.58,56.09,20.00,93.33,15.31,15.68,0.00,0.00,2.55
1,178.94,112.86,183.33,109.23,5.56,4.50,4.00,4.04,6.10,23.33,2.00,7.89,46.41,10.00,85.00,11.88,10.19,8.50,0.00,7.86,72.44,113.33,25.00,19.96,57.17,20.00,93.33,16.15,16.11,0.00,0.00,2.79
1,181.84,107.14,193.33,113.43,3.74,3.00,2.00,2.98,6.10,23.33,2.00,7.89,48.01,10.00,86.67,12.25,9.82,8.00,0.00,7.53,73.63,116.67,25.00,20.16,56.54,20.00,88.89,16.50,16.23,0.00,0.00,2.81
1,183.17,108.57,193.33,115.29,3.00,2.50,2.00,1.78,6.09,23.33,2.00,7.89,48.97,10.00,88.33,12.86,9.58,7.50,0.00,7.15,71.07,106.67,25.00,19.16,56.95,20.00,88.89,17.03,16.47,0.00,0.00,2.93
1,182.93,110.00,196.67,111.44,2.99,2.50,2.00,1.77,7.22,30.00,2.50,8.78,48.52,10.00,91.67,12.45,9.49,7.00,0.00,7.22,71.67,103.33,25.00,19.09,57.86,20.00,93.33,17.31,16.26,0.00,0.00,2.91
1,182.89,110.00,200.00,112.15,2.99,2.50,2.00,1.77,8.12,36.67,3.00,10.64,49.59,10.00,93.33,12.80,10.10,7.50,0.00,7.93,71.93,106.67,25.00,19.28,58.89,24.44,97.78,17.60,17.07,0.00,0.00,3.11
1,180.28,105.71,190.00,112.30,2.99,2.50,2.00,1.77,8.28,36.67,3.00,10.69,49.96,10.00,91.67,13.14,10.06,7.00,0.00,7.88,71.64,103.33,25.00,19.82,60.23,26.67,97.78,18.20,16.96,0.00,0.00,3.09
1,179.59,104.29,183.33,111.96,3.00,2.50,2.00,1.77,6.34,26.67,2.00,7.48,49.95,10.00,95.00,13.04,9.59,6.00,0.00,7.49,71.37,103.33,25.00,19.52,57.99,20.00,95.56,16.71,17.23,0.00,0.00,3.26
1,176.21,101.43,176.67,110.84,5.18,3.50,3.50,3.93,6.79,26.67,2.50,8.43,49.69,10.00,93.33,13.05,9.68,5.50,0.00,7.27,69.76,106.67,20.00,18.29,57.26,20.00,95.56,16.61,17.54,0.00,0.00,3.27
1,175.81,100.00,166.67,112.31,6.42,4.50,4.50,5.14,7.19,30.00,2.50,8.94,49.73,15.00,95.00,12.89,9.27,4.50,0.00,6.97,68.43,100.00,20.00,18.27,57.07,20.00,95.56,16.46,17.52,0.00,0.00,3.27
1,173.89,100.00,166.67,111.28,6.45,4.50,4.50,5.14,7.21,30.00,2.50,8.94,51.07,15.00,98.33,13.22,9.34,5.00,0.00,7.20,69.58,100.00,20.00,18.48,56.28,17.78,93.33,16.21,17.66,0.00,0.00,3.29
1,178.50,100.00,170.00,116.49,5.64,3.50,3.50,4.76,6.52,26.67,2.50,8.53,50.75,15.00,100.00,13.19,9.38,5.00,0.00,6.90,72.46,110.00,20.00,19.62,54.69,17.78,86.67,15.78,17.79,0.00,0.00,3.30
1,176.39,101.43,166.67,114.90,5.55,3.50,3.50,4.72,4.41,20.00,1.50,4.99,51.27,15.00,101.67,13.38,9.33,4.50,0.00,6.73,68.03,100.00,15.00,18.28,55.73,17.78,91.11,15.83,17.40,0.00,0.00,3.23
1,174.93,98.57,156.67,116.58,5.55,3.50,3.50,4.72,4.35,20.00,1.50,4.97,51.45,15.00,101.67,13.49,9.24,4.50,0.00,6.62,68.72,100.00,15.00,18.23,56.76,17.78,91.11,16.02,17.75,0.00,0.00,3.33
1,178.41,97.14,153.33,120.92,5.55,3.50,3.50,4.72,4.35,20.00,1.50,4.97,51.99,15.00,103.33,13.75,9.05,4.50,0.00,6.57,71.30,106.67,15.00,19.49,57.15,20.00,91.11,16.57,17.78,0.00,0.00,3.30
1,176.47,94.29,156.67,119.86,5.54,3.50,3.50,4.72,4.35,20.00,1.50,4.97,52.62,15.00,101.67,13.93,8.84,4.50,0.00,6.48,73.86,110.00,20.00,21.36,58.62,22.22,95.56,17.64,18.21,0.00,0.00,3.36
1,173.96,92.86,146.67,117.11,5.54,3.50,3.50,4.72,4.35,20.00,1.50,4.97,52.53,15.00,101.67,13.76,8.51,4.50,0.00,6.37,72.67,100.00,20.00,21.08,58.77,22.22,95.56,17.83,17.57,0.00,0.00,3.22
1,175.75,97.14,156.67,117.84,6.29,4.50,4.50,5.03,4.35,20.00,1.50,4.97,51.85,15.00,101.67,13.45,8.30,4.50,0.00,6.28,75.47,103.33,30.00,23.08,58.17,20.00,95.56,17.74,17.31,0.00,0.00,3.14
1,173.30,95.71,153.33,115.76,8.15,5.50,6.00,6.89,4.34,20.00,1.50,4.97,53.24,15.00,103.33,14.20,7.75,4.00,0.00,5.96,73.80,96.67,20.00,22.60,58.76,20.00,95.56,18.22,17.35,0.00,0.00,3.17
1,172.38,95.71,156.67,111.24,8.21,5.50,6.00,6.89,4.34,20.00,1.50,4.97,52.53,10.00,105.00,13.82,7.10,3.50,0.00,5.35,73.01,93.33,20.00,22.84,58.71,22.22,93.33,18.46,17.69,0.00,0.00,3.20
1,173.05,100.00,156.67,109.42,7.07,4.50,5.00,5.89,4.35,20.00,1.50,4.97,52.34,10.00,103.33,14.14,6.44,3.00,0.00,4.68,74.13,100.00,25.00,23.72,61.70,26.67,97.78,19.53,17.08,0.00,0.00,3.02
1,174.97,101.43,156.67,112.80,6.58,4.00,5.00,5.56,4.35,20.00,1.50,4.97,51.26,10.00,100.00,13.73,5.95,2.50,0.00,4.17,75.01,93.33,25.00,23.78,63.47,26.67,102.22,20.67,16.60,0.00,0.00,2.88
1,175.80,101.43,160.00,112.60,6.57,4.00,5.00,5.55,4.37,20.00,1.50,4.97,50.94,10.00,93.33,14.23,5.51,2.50,0.00,3.91,77.24,100.00,35.00,25.51,62.72,28.89,97.78,21.10,15.92,0.00,0.00,2.49
1,177.49,105.71,160.00,112.41,6.57,4.00,5.00,5.55,6.11,26.67,2.50,7.62,53.42,15.00,98.33,16.13,5.58,2.50,0.00,4.12,78.25,103.33,35.00,25.92,63.29,26.67,100.00,20.53,16.43,0.00,0.00,2.59
1,177.11,105.71,160.00,112.56,6.57,4.00,5.00,5.55,6.36,26.67,2.50,7.92,53.22,15.00,96.67,16.22,5.20,2.50,0.00,3.98,86.35,113.33,50.00,32.37,65.65,31.11,106.67,21.17,16.06,0.00,0.00,2.47
1,177.44,104.29,160.00,112.93,6.56,4.00,5.00,5.55,6.36,26.67,2.50,7.92,52.73,20.00,91.67,16.06,4.82,2.50,0.00,3.67,89.80,130.00,55.00,34.51,68.16,33.33,111.11,22.07,16.61,0.00,0.00,2.60
1,174.33,101.43,153.33,111.58,6.55,4.00,5.00,5.55,4.59,16.67,1.50,5.32,52.29,20.00,88.33,16.65,4.06,2.00,0.00,3.06,90.63,133.33,55.00,35.28,64.99,28.89,102.22,21.62,16.81,0.00,0.00,2.61
1,171.42,100.00,150.00,111.82,7.42,4.50,6.00,6.16,6.14,20.00,2.50,8.38,50.40,20.00,83.33,15.86,5.04,3.50,5.00,6.43,94.05,136.67,65.00,37.81,66.40,31.11,104.44,22.06,16.48,0.00,0.00,2.48
1,178.11,105.71,163.33,115.60,7.81,5.00,6.00,6.36,6.37,20.00,2.50,8.63,49.80,20.00,83.33,15.70,4.90,3.50,5.00,6.39,93.71,136.67,65.00,37.48,64.14,28.89,104.44,21.17,16.72,0.00,0.00,2.56
1,180.95,104.29,166.67,118.57,5.94,4.00,5.00,4.35,6.04,20.00,2.00,8.63,50.16,20.00,85.00,15.74,4.40,3.50,5.00,6.01,92.13,133.33,65.00,36.82,65.55,28.89,108.89,21.55,16.95,0.00,0.00,2.78
1,177.99,104.29,166.67,115.17,4.46,3.00,3.50,3.01,4.69,13.33,2.00,6.48,48.76,15.00,85.00,15.10,4.08,3.50,5.00,5.87,93.52,136.67,65.00,37.87,65.08,28.89,104.44,21.58,16.77,0.00,0.00,2.74
1,176.89,102.86,166.67,113.89,4.35,3.00,3.50,2.99,4.66,13.33,2.00,6.47,46.27,10.00,81.67,14.14,3.68,3.00,5.00,5.57,91.84,133.33,65.00,37.18,65.20,28.89,102.22,21.72,16.48,0.00,0.00,2.71
0,176.95,105.71,170.00,109.81,4.36,3.00,3.50,2.99,4.66,13.33,2.00,6.47,45.79,10.00,78.33,13.78,3.36,3.00,5.00,5.46,94.34,136.67,65.00,40.96,67.32,31.11,106.67,22.85,15.83,0.00,0.00,2.58
0,172.16,102.86,163.33,106.59,4.34,3.00,3.50,2.99,4.66,13.33,2.00,6.47,45.85,10.00,80.00,13.75,2.75,2.50,5.00,4.89,97.98,140.00,65.00,43.96,69.52,35.56,104.44,25.89,15.64,0.00,0.00,2.57
0,170.00,102.86,156.67,105.69,4.34,3.00,3.50,2.99,4.66,13.33,2.00,6.47,44.97,10.00,80.00,13.58,2.22,2.00,5.00,4.61,100.17,143.33,70.00,46.39,71.13,37.78,106.67,27.43,14.94,0.00,0.00,2.42
0,166.32,102.86,156.67,100.50,4.81,3.00,3.50,2.99,4.67,13.33,2.00,6.47,43.24,10.00,76.67,12.77,2.06,2.00,5.00,4.51,98.43,136.67,70.00,45.40,70.16,35.56,104.44,26.83,14.64,0.00,0.00,2.41
0,163.51,104.29,150.00,98.87,6.36,4.00,4.50,4.90,4.67,13.33,2.00,6.47,42.89,10.00,73.33,12.74,2.06,2.00,5.00,4.51,100.00,136.67,65.00,47.55,71.75,37.78,106.67,28.50,14.27,0.00,0.00,2.40
0,165.68,105.71,153.33,98.52,6.39,4.00,4.50,4.90,4.67,13.33,2.00,6.47,41.75,10.00,70.00,12.58,2.06,2.00,5.00,4.51,100.26,140.00,70.00,48.08,71.95,35.56,102.22,31.29,14.20,0.00,0.00,2.34
0,162.82,102.86,143.33,97.73,5.70,3.00,3.50,4.61,4.67,13.33,2.00,6.47,39.60,10.00,65.00,12.20,2.06,2.00,5.00,4.51,98.80,140.00,60.00,47.23,70.91,35.56,100.00,30.67,14.24,0.00,0.00,2.35
0,165.02,102.86,146.67,103.03,3.95,2.00,2.00,2.86,4.67,13.33,2.00,6.47,36.14,10.00,60.00,10.81,2.06,2.00,5.00,4.51,105.22,146.67,70.00,53.25,74.62,42.22,102.22,33.11,13.92,0.00,0.00,2.30
0,164.60,102.86,146.67,102.79,3.75,2.00,2.00,2.73,4.67,13.33,2.00,6.47,34.48,10.00,53.33,10.45,2.06,2.00,5.00,4.51,102.59,146.67,70.00,51.98,76.13,42.22,104.44,33.98,13.65,0.00,0.00,2.25
0,161.21,100.00,143.33,100.57,3.74,2.00,2.00,2.73,6.59,23.33,3.00,9.68,33.44,10.00,48.33,9.74,2.06,2.00,5.00,4.51,103.61,140.00,65.00,53.11,75.59,42.22,106.67,33.71,13.61,0.00,0.00,2.24
0,159.35,98.57,136.67,99.78,3.76,2.00,2.00,2.73,6.89,23.33,3.00,9.96,33.78,10.00,51.67,9.61,2.06,2.00,5.00,4.51,103.18,143.33,65.00,52.14,74.98,42.22,104.44,33.18,13.62,0.00,0.00,2.32
0,158.00,97.14,136.67,97.80,3.74,2.00,2.00,2.73,6.89,23.33,3.00,9.96,33.03,10.00,51.67,8.92,2.06,2.00,5.00,4.51,100.11,143.33,55.00,50.68,72.91,37.78,104.44,32.28,13.45,0.00,0.00,2.33
0,161.44,98.57,136.67,102.65,3.74,2.00,2.00,2.73,5.68,20.00,2.00,8.96,30.33,5.00,50.00,7.29,1.55,1.50,5.00,3.96,100.63,146.67,55.00,52.00,72.13,37.78,100.00,32.78,13.34,0.00,0.00,2.25
0,156.34,95.71,130.00,98.31,5.61,3.00,3.00,4.79,5.59,20.00,2.00,7.41,28.24,5.00,45.00,6.07,1.49,1.50,5.00,3.92,92.97,140.00,40.00,45.78,67.37,33.33,88.89,31.24,13.03,0.00,0.00,2.18
0,157.11,97.14,133.33,97.79,5.90,3.00,3.00,5.03,7.93,26.67,3.00,10.95,29.00,5.00,51.67,6.58,1.48,1.50,5.00,3.92,88.64,126.67,35.00,43.62,66.54,33.33,82.22,30.96,12.56,0.00,0.00,2.10
0,158.90,98.57,136.67,99.02,5.90,3.00,3.00,5.03,9.71,33.33,4.00,14.68,27.18,0.00,48.33,5.56,1.48,1.50,5.00,3.92,86.64,116.67,35.00,42.82,63.22,31.11,77.78,28.67,12.35,0.00,0.00,2.02
0,154.32,97.14,130.00,93.06,5.66,3.00,2.50,5.03,8.22,30.00,3.00,12.04,27.47,0.00,48.33,5.55,0.18,0.00,0.00,0.28,83.29,116.67,25.00,39.95,62.34,28.89,73.33,28.35,12.27,0.00,0.00,2.06
0,150.48,95.71,126.67,88.32,4.65,2.00,2.00,4.23,7.56,26.67,3.00,11.19,27.67,0.00,45.00,5.67,0.01,0.00,0.00,0.00,82.83,116.67,25.00,39.56,61.62,28.89,68.89,28.16,11.52,0.00,0.00,1.79
0,146.96,92.86,120.00,87.39,4.63,2.00,2.00,4.23,7.54,26.67,3.00,11.18,26.75,0.00,43.33,5.47,0.00,0.00,0.00,0.00,82.77,113.33,25.00,39.54,60.41,28.89,62.22,27.91,10.91,0.00,0.00,1.53
0,143.68,91.43,120.00,82.25,4.63,2.00,2.00,4.23,7.55,26.67,3.00,11.18,26.96,0.00,43.33,5.59,0.00,0.00,0.00,0.00,80.42,103.33,25.00,38.67,60.32,28.89,62.22,27.94,10.71,0.00,0.00,1.45
0,141.49,91.43,116.67,81.28,4.63,2.00,2.00,4.23,7.54,26.67,3.00,11.18,26.43,0.00,38.33,5.53,0.00,0.00,0.00,0.00,79.37,100.00,25.00,37.73,59.47,28.89,62.22,27.84,10.73,0.00,0.00,1.40
0,135.68,85.71,106.67,78.00,4.62,2.00,2.00,4.23,7.55,26.67,3.00,11.18,26.07,0.00,36.67,5.41,0.00,0.00,0.00,0.00,75.10,93.33,25.00,34.22,57.10,26.67,57.78,26.66,10.49,0.00,0.00,1.36
0,130.43,80.00,100.00,74.91,5.77,2.50,3.00,5.28,7.55,26.67,3.00,11.19,25.29,0.00,33.33,5.41,0.00,0.00,0.00,0.00,71.06,83.33,25.00,31.03,53.47,22.22,53.33,24.24,10.56,0.00,0.00,1.36
0,126.49,77.14,96.67,73.19,6.29,3.00,3.00,5.63,7.55,26.67,3.00,11.19,23.82,0.00,28.33,4.86,0.00,0.00,0.00,0.00,65.22,73.33,20.00,26.79,50.80,20.00,48.89,21.49,10.49,0.00,0.00,1.34
0,121.50,72.86,90.00,67.93,6.22,3.00,3.00,5.62,7.56,26.67,3.00,11.19,24.62,0.00,31.67,5.03,0.00,0.00,0.00,0.00,63.60,73.33,20.00,25.91,50.10,20.00,48.89,20.94,10.50,0.00,0.00,1.30
0,118.63,70.00,83.33,65.18,4.37,2.00,2.00,3.74,7.57,26.67,3.00,11.19,25.12,0.00,36.67,5.05,0.00,0.00,0.00,0.00,60.65,70.00,20.00,23.50,47.97,17.78,42.22,18.87,10.18,0.00,0.00,1.26
0,114.84,70.00,76.67,61.67,4.25,2.00,2.00,3.71,7.57,26.67,3.00,11.19,24.02,0.00,35.00,4.67,0.00,0.00,0.00,0.00,57.50,63.33,20.00,20.92,44.51,15.56,37.78,15.12,10.23,0.00,0.00,1.18
0,108.16,65.71,66.67,55.72,4.25,2.00,2.00,3.71,7.56,26.67,3.00,11.19,24.56,0.00,35.00,4.71,0.00,0.00,0.00,0.00,52.39,53.33,15.00,17.95,42.28,13.33,35.56,13.75,9.98,0.00,0.00,1.10
0,101.92,61.43,60.00,50.14,4.27,2.00,2.00,3.71,7.56,26.67,3.00,11.19,25.61,0.00,36.67,4.93,0.00,0.00,0.00,0.00,45.24,43.33,10.00,12.36,39.09,11.11,33.33,11.51,9.87,0.00,0.00,1.07
0,95.98,60.00,50.00,44.98,4.26,2.00,2.00,3.71,8.36,33.33,3.50,11.63,25.71,0.00,36.67,5.07,0.00,0.00,0.00,0.00,42.56,40.00,5.00,10.95,33.67,4.44,26.67,8.25,9.97,0.00,0.00,1.03
0,93.83,55.71,46.67,43.96,4.27,2.00,2.00,3.71,7.40,30.00,2.50,9.90,26.96,0.00,40.00,5.55,0.00,0.00,0.00,0.00,39.45,36.67,0.00,8.91,31.92,2.22,24.44,7.24,10.04,0.00,0.00,1.04
0,90.02,52.86,46.67,40.50,4.27,2.00,2.00,3.71,6.68,26.67,2.50,9.02,26.88,0.00,38.33,5.45,0.00,0.00,0.00,0.00,36.54,33.33,0.00,7.87,29.29,0.00,17.78,6.04,10.11,0.00,0.00,1.02
0,88.96,52.86,43.33,39.28,4.26,2.00,2.00,3.71,6.66,26.67,2.50,9.02,27.97,0.00,40.00,5.98,0.00,0.00,0.00,0.00,34.04,26.67,0.00,6.77,28.65,0.00,20.00,5.32,9.85,0.00,0.00,0.96
0,90.04,55.71,50.00,36.10,6.62,3.00,3.50,6.00,7.96,30.00,3.50,11.02,27.19,0.00,38.33,5.71,0.00,0.00,0.00,0.00,28.62,13.33,0.00,4.17,26.11,0.00,15.56,4.12,10.02,0.00,0.00,0.93
0,84.24,54.29,40.00,31.38,7.13,3.50,3.50,7.68,9.66,36.67,4.50,14.64,28.58,0.00,40.00,6.01,0.00,0.00,0.00,0.00,26.32,3.33,0.00,3.19,26.92,0.00,15.56,4.30,9.92,0.00,0.00,0.96
0,79.82,48.57,26.67,29.13,6.34,3.00,3.50,6.18,8.00,30.00,3.50,11.67,27.80,0.00,35.00,5.63,0.00,0.00,0.00,0.00,25.35,3.33,0.00,2.95,26.07,0.00,15.56,4.10,9.99,0.00,0.00,0.97
0,74.61,45.71,20.00,24.95,6.30,3.00,3.50,6.18,5.88,23.33,2.50,7.74,27.97,0.00,36.67,5.57,0.00,0.00,0.00,0.00,24.73,3.33,0.00,2.85,25.75,0.00,15.56,4.07,10.05,0.00,0.00,1.02
0,74.55,45.71,23.33,24.30,6.30,3.00,3.50,6.18,5.75,23.33,2.50,7.69,28.64,0.00,38.33,5.66,0.00,0.00,0.00,0.00,22.02,0.00,0.00,2.18,25.47,0.00,15.56,3.84,9.49,0.00,0.00,0.93
0,71.82,42.86,16.67,24.25,6.30,3.00,3.50,6.18,5.74,23.33,2.50,7.69,28.11,0.00,40.00,5.57,0.00,0.00,0.00,0.00,21.44,0.00,0.00,2.00,24.54,0.00,15.56,3.55,9.66,0.00,0.00,1.01
0,72.42,42.86,16.67,23.24,6.30,3.00,3.50,6.18,5.74,23.33,2.50,7.69,28.51,0.00,40.00,5.54,0.00,0.00,0.00,0.00,20.42,0.00,0.00,1.88,24.33,0.00,15.56,3.56,10.12,0.00,0.00,1.13
0,69.91,41.43,13.33,20.94,6.29,3.00,3.50,6.18,5.74,23.33,2.50,7.69,27.64,0.00,36.67,5.38,0.00,0.00,0.00,0.00,18.65,0.00,0.00,1.56,23.63,0.00,15.56,3.23,10.13,0.00,0.00,1.14
0,69.59,40.00,13.33,20.75,6.29,3.00,3.50,6.18,5.74,23.33,2.50,7.69,28.82,0.00,40.00,5.60,0.00,0.00,0.00,0.00,18.23,0.00,0.00,1.45,23.34,0.00,15.56,2.86,10.28,0.00,0.00,1.19
0,72.09,40.00,20.00,21.89,6.30,3.00,3.50,6.18,5.73,23.33,2.50,7.69,29.41,0.00,43.33,5.86,0.00,0.00,0.00,0.00,17.85,0.00,0.00,1.41,22.86,0.00,15.56,2.75,10.85,0.00,0.00,1.25
0,71.52,40.00,20.00,22.00,5.97,3.00,3.00,6.18,5.72,23.33,2.50,7.69,29.14,0.00,41.67,5.77,0.00,0.00,0.00,0.00,17.33,0.00,0.00,1.42,23.12,0.00,15.56,2.80,10.96,0.00,0.00,1.36
0,73.24,42.86,23.33,22.92,4.77,2.00,2.50,4.79,5.72,23.33,2.50,7.69,30.05,0.00,45.00,5.86,0.00,0.00,0.00,0.00,16.49,0.00,0.00,1.31,22.47,0.00,11.11,2.52,11.59,0.00,0.00,1.53
0,74.13,44.29,23.33,23.08,5.45,2.50,3.50,5.15,5.72,23.33,2.50,7.69,29.45,0.00,41.67,5.72,0.00,0.00,0.00,0.00,16.24,0.00,0.00,1.27,22.07,0.00,11.11,2.40,11.68,0.00,0.00,1.55
0,75.28,44.29,23.33,23.25,5.75,3.00,3.50,5.27,5.70,23.33,2.50,7.68,28.66,0.00,36.67,5.55,0.00,0.00,0.00,0.00,16.04,0.00,0.00,1.30,21.41,0.00,11.11,2.34,11.96,0.00,0.00,1.64
0,73.41,42.86,23.33,23.11,5.76,3.00,3.50,5.27,5.71,23.33,2.50,7.68,29.86,0.00,40.00,5.82,0.00,0.00,0.00,0.00,14.86,0.00,0.00,1.06,21.53,0.00,11.11,2.23,11.75,0.00,0.00,1.62
0,75.45,45.71,23.33,24.16,5.75,3.00,3.50,5.27,5.71,23.33,2.50,7.68,31.09,0.00,45.00,6.20,0.00,0.00,0.00,0.00,14.92,0.00,0.00,1.07,22.01,0.00,13.33,2.33,11.80,0.00,0.00,1.66
0,76.25,47.14,23.33,24.68,5.74,3.00,3.50,5.27,5.71,23.33,2.50,7.68,30.56,0.00,43.33,6.08,0.00,0.00,0.00,0.00,15.18,0.00,0.00,1.10,21.61,0.00,13.33,2.26,11.87,0.00,0.00,1.74
0,75.42,44.29,23.33,23.88,5.73,3.00,3.50,5.27,5.72,23.33,2.50,7.68,30.51,0.00,45.00,5.92,0.00,0.00,0.00,0.00,14.96,0.00,0.00,1.09,21.70,0.00,13.33,2.26,11.81,0.00,0.00,1.76
0,77.65,48.57,26.67,25.11,5.72,3.00,3.50,5.27,4.40,13.33,2.00,6.36,29.52,0.00,41.67,5.39,0.00,0.00,0.00,0.00,14.56,0.00,0.00,1.06,20.77,0.00,8.89,2.11,11.80,0.00,0.00,1.81
0,80.63,51.43,30.00,26.18,5.72,3.00,3.50,5.27,4.37,13.33,2.00,6.36,29.56,0.00,41.67,5.25,0.00,0.00,0.00,0.00,14.56,0.00,0.00,1.06,20.51,0.00,8.89,2.11,11.78,0.00,0.00,1.84
0,76.73,47.14,30.00,24.51,5.72,3.00,3.50,5.27,5.86,16.67,3.00,8.97,28.80,0.00,41.67,5.00,0.00,0.00,0.00,0.00,14.35,0.00,0.00,1.04,20.56,0.00,6.67,2.13,11.60,0.00,0.00,1.78
0,72.49,41.43,23.33,23.03,3.80,2.00,2.50,3.13,7.00,26.67,2.50,10.79,28.78,0.00,43.33,4.95,0.00,0.00,0.00,0.00,14.42,0.00,0.00,1.05,20.34,0.00,6.67,2.10,11.27,0.00,0.00,1.75
0,72.98,42.86,26.67,23.48,1.69,1.00,1.00,0.54,4.59,16.67,1.00,7.14,28.15,0.00,43.33,4.81,0.00,0.00,0.00,0.00,13.92,0.00,0.00,0.98,19.90,0.00,6.67,2.10,11.11,0.00,0.00,1.69
0,73.90,45.71,30.00,24.22,1.51,1.00,1.00,0.49,3.72,13.33,1.00,4.60,28.14,0.00,45.00,4.73,0.00,0.00,0.00,0.00,13.42,0.00,0.00,0.89,19.87,0.00,6.67,2.06,11.26,0.00,0.00,1.78
0,72.81,45.71,30.00,23.86,1.51,1.00,1.00,0.49,3.69,13.33,1.00,4.59,27.76,0.00,46.67,4.43,0.00,0.00,0.00,0.00,13.59,0.00,0.00,0.93,19.92,0.00,6.67,2.02,11.31,0.00,0.00,1.79
0,72.53,47.14,30.00,23.72,1.51,1.00,1.00,0.49,3.70,13.33,1.00,4.59,26.66,0.00,45.00,3.95,0.00,0.00,0.00,0.00,13.51,0.00,0.00,0.91,19.57,0.00,6.67,1.98,11.33,0.00,0.00,1.78
0,71.37,45.71,26.67,22.63,1.54,1.00,1.00,0.50,4.64,20.00,1.00,5.34,26.88,0.00,43.33,4.03,0.00,0.00,0.00,0.00,13.46,0.00,0.00,0.88,20.19,0.00,6.67,2.07,11.06,0.00,0.00,1.69
0,69.25,44.29,23.33,21.79,2.47,2.00,2.00,1.00,7.01,26.67,2.00,8.92,27.07,0.00,45.00,4.06,0.00,0.00,0.00,0.00,13.41,0.00,0.00,0.87,20.07,0.00,6.67,2.04,11.08,0.00,0.00,1.67
0,68.90,45.71,23.33,21.03,2.58,2.00,2.00,1.04,8.79,33.33,3.00,12.65,26.81,0.00,45.00,3.95,0.00,0.00,0.00,0.00,12.91,0.00,0.00,0.80,20.49,0.00,6.67,2.13,11.14,0.00,0.00,1.71
0,69.96,45.71,23.33,21.38,2.58,2.00,2.00,1.04,8.83,33.33,3.00,12.67,26.65,0.00,46.67,3.77,0.00,0.00,0.00,0.00,12.74,0.00,0.00,0.76,20.26,0.00,4.44,2.12,11.27,0.00,0.00,1.74
0,68.63,44.29,20.00,20.85,2.59,2.00,2.00,1.04,8.83,33.33,3.00,12.67,25.46,0.00,43.33,3.46,0.00,0.00,0.00,0.00,12.92,0.00,0.00,0.77,20.35,0.00,4.44,2.10,11.04,0.00,0.00,1.74
0,67.83,44.29,16.67,20.17,2.60,2.00,2.00,1.04,8.84,33.33,3.00,12.67,25.70,0.00,45.00,3.48,0.00,0.00,0.00,0.00,12.62,0.00,0.00,0.72,19.66,0.00,4.44,2.00,11.08,0.00,0.00,1.69
0,66.75,41.43,13.33,19.07,2.60,2.00,2.00,1.04,8.84,33.33,3.00,12.67,25.69,0.00,45.00,3.47,0.00,0.00,0.00,0.00,12.23,0.00,0.00,0.64,19.68,0.00,4.44,1.94,10.50,0.00,0.00,1.55
0,67.86,44.29,13.33,19.22,2.24,2.00,1.50,1.02,8.85,33.33,3.00,12.67,26.12,0.00,46.67,3.73,0.00,0.00,0.00,0.00,11.75,0.00,0.00,0.59,19.76,0.00,4.44,2.05,10.40,0.00,0.00,1.47
0,65.17,41.43,13.33,18.65,1.48,1.00,1.00,0.55,8.85,33.33,3.00,12.67,25.69,0.00,46.67,3.66,0.00,0.00,0.00,0.00,11.77,0.00,0.00,0.55,19.95,0.00,4.44,2.07,10.35,0.00,0.00,1.41
0,65.77,42.86,13.33,18.66,1.47,1.00,1.00,0.55,8.84,33.33,3.00,12.67,25.33,0.00,45.00,3.58,0.00,0.00,0.00,0.00,12.02,0.00,0.00,0.58,20.00,0.00,4.44,2.08,10.42,0.00,0.00,1.44
0,67.24,47.14,13.33,18.69,1.47,1.00,1.00,0.55,8.84,33.33,3.00,12.67,24.78,0.00,41.67,3.36,0.00,0.00,0.00,0.00,11.86,0.00,0.00,0.57,19.15,0.00,2.22,1.95,10.40,0.00,0.00,1.42
0,64.57,42.86,13.33,17.65,1.47,1.00,1.00,0.55,8.84,33.33,3.00,12.67,24.75,0.00,41.67,3.34,0.00,0.00,0.00,0.00,11.37,0.00,0.00,0.52,18.86,0.00,2.22,1.91,10.26,0.00,0.00,1.35
0,64.11,42.86,13.33,17.40,1.48,1.00,1.00,0.55,8.84,33.33,3.00,12.67,24.94,0.00,43.33,3.38,0.00,0.00,0.00,0.00,11.40,0.00,0.00,0.53,18.60,0.00,2.22,1.88,10.26,0.00,0.00,1.34
0,65.08,42.86,13.33,18.29,1.48,1.00,1.00,0.55,8.84,33.33,3.00,12.67,24.35,0.00,43.33,3.32,0.00,0.00,0.00,0.00,11.31,0.00,0.00,0.54,18.57,0.00,2.22,1.86,10.09,0.00,0.00,1.26
0,65.28,42.86,10.00,18.98,1.47,1.00,1.00,0.55,8.86,33.33,3.00,12.67,24.55,0.00,45.00,3.44,0.00,0.00,0.00,0.00,11.01,0.00,0.00,0.52,18.66,0.00,2.22,1.92,10.05,0.00,0.00,1.27
0,66.04,42.86,10.00,18.84,1.87,1.50,1.50,0.68,8.44,33.33,2.50,12.67,24.17,0.00,45.00,3.20,0.00,0.00,0.00,0.00,10.79,0.00,0.00,0.50,18.24,0.00,0.00,1.82,10.40,0.00,0.00,1.29
0,69.60,48.57,10.00,19.89,3.60,2.50,2.50,2.26,6.19,23.33,2.00,8.92,24.05,0.00,45.00,3.08,0.00,0.00,0.00,0.00,10.85,0.00,0.00,0.51,18.69,0.00,0.00,1.90,10.80,0.00,0.00,1.33
0,67.61,45.71,6.67,18.68,3.84,2.50,2.50,2.44,5.66,20.00,2.00,8.10,24.93,0.00,46.67,3.33,0.00,0.00,0.00,0.00,11.10,0.00,0.00,0.54,18.96,0.00,2.22,1.84,11.28,0.00,0.00,1.43
0,66.57,44.29,3.33,18.18,3.86,2.50,2.50,2.44,5.59,20.00,2.00,8.09,24.43,0.00,43.33,3.27,0.00,0.00,0.00,0.00,11.11,0.00,0.00,0.55,18.60,0.00,2.22,1.71,11.50,0.00,0.00,1.42
0,69.18,45.71,3.33,18.64,3.85,2.50,2.50,2.44,5.59,20.00,2.00,8.09,24.27,0.00,43.33,3.26,0.00,0.00,0.00,0.00,10.95,0.00,0.00,0.47,18.69,0.00,2.22,1.76,11.41,0.00,0.00,1.33
0,70.78,45.71,3.33,19.02,3.84,2.50,2.50,2.44,5.60,20.00,2.00,8.09,24.67,0.00,45.00,3.28,0.00,0.00,0.00,0.00,10.83,0.00,0.00,0.45,18.67,0.00,2.22,1.78,11.64,0.00,0.00,1.36
0,69.63,45.71,3.33,19.30,3.83,2.50,2.50,2.44,4.72,13.33,2.00,7.40,24.96,0.00,46.67,3.32,0.00,0.00,0.00,0.00,10.71,0.00,0.00,0.45,18.68,0.00,2.22,1.80,11.63,0.00,0.00,1.37
0,70.07,45.71,3.33,20.04,3.11,2.00,1.50,2.03,2.72,6.67,1.00,4.00,25.22,0.00,48.33,3.46,0.00,0.00,0.00,0.00,10.88,0.00,0.00,0.43,18.82,0.00,2.22,1.81,11.43,0.00,0.00,1.30
0,74.21,50.00,10.00,22.08,2.79,1.50,1.50,1.89,2.10,6.67,1.00,2.68,25.34,0.00,50.00,3.42,0.00,0.00,0.00,0.00,11.19,0.00,0.00,0.44,18.65,0.00,2.22,1.79,11.33,0.00,0.00,1.24
0,76.01,52.86,10.00,22.84,2.79,1.50,1.50,1.89,4.25,16.67,2.00,6.40,24.95,0.00,46.67,3.39,0.00,0.00,0.00,0.00,11.24,0.00,0.00,0.44,18.08,0.00,2.22,1.69,11.09,0.00,0.00,1.18
0,74.37,51.43,10.00,22.29,2.80,1.50,1.50,1.89,4.53,16.67,2.00,6.74,25.24,0.00,46.67,3.40,0.00,0.00,0.00,0.00,11.14,0.00,0.00,0.43,18.91,0.00,4.44,1.81,11.00,0.00,0.00,1.12
0,76.77,54.29,13.33,23.93,2.78,1.50,1.50,1.89,4.52,16.67,2.00,6.74,25.96,0.00,48.33,3.69,0.00,0.00,0.00,0.00,11.21,0.00,0.00,0.44,19.90,0.00,4.44,1.98,10.76,0.00,0.00,1.09
0,77.06,55.71,13.33,23.34,2.78,1.50,1.50,1.89,4.52,16.67,2.00,6.74,25.95,0.00,45.00,3.75,0.00,0.00,0.00,0.00,10.87,0.00,0.00,0.42,19.83,0.00,4.44,2.00,10.98,0.00,0.00,1.12
0,76.13,52.86,13.33,22.95,2.79,1.50,1.50,1.89,4.51,16.67,2.00,6.74,25.98,0.00,45.00,3.59,0.00,0.00,0.00,0.00,11.07,0.00,0.00,0.42,19.41,0.00,4.44,1.88,10.67,0.00,0.00,1.08
0,78.18,54.29,13.33,23.80,3.60,2.50,2.50,2.28,4.66,16.67,2.00,6.76,26.62,0.00,48.33,3.68,0.00,0.00,0.00,0.00,11.26,0.00,0.00,0.45,19.52,0.00,4.44,1.85,10.98,0.00,0.00,1.14
0,78.35,51.43,13.33,24.25,5.58,3.50,4.00,4.53,6.86,23.33,3.00,9.67,25.83,0.00,46.67,3.50,0.00,0.00,0.00,0.00,11.04,0.00,0.00,0.43,19.29,0.00,4.44,1.84,10.98,0.00,0.00,1.11
0,78.62,51.43,16.67,24.28,5.82,3.50,4.00,4.70,9.74,33.33,4.50,14.35,26.02,0.00,46.67,3.48,0.00,0.00,0.00,0.00,11.43,0.00,0.00,0.45,19.45,0.00,4.44,1.85,11.01,0.00,0.00,1.09
0,77.18,48.57,16.67,23.98,5.82,3.50,4.00,4.70,10.61,36.67,5.00,16.91,26.11,0.00,48.33,3.55,0.00,0.00,0.00,0.00,11.50,0.00,0.00,0.47,20.09,0.00,6.67,2.00,11.19,0.00,0.00,1.11
0,81.06,52.86,20.00,26.03,5.82,3.50,4.00,4.70,10.65,36.67,5.00,16.92,25.80,0.00,46.67,3.56,0.00,0.00,0.00,0.00,11.63,0.00,0.00,0.48,20.71,0.00,6.67,2.14,10.94,0.00,0.00,1.08
0,77.66,48.57,16.67,24.97,5.83,3.50,4.00,4.70,10.66,36.67,5.00,16.92,27.10,0.00,50.00,3.81,0.00,0.00,0.00,0.00,11.58,0.00,0.00,0.47,20.78,0.00,6.67,2.19,11.07,0.00,0.00,1.12
0,76.66,47.14,16.67,24.45,5.83,3.50,4.00,4.70,10.66,36.67,5.00,16.92,27.53,0.00,51.67,4.02,0.00,0.00,0.00,0.00,11.50,0.00,0.00,0.47,20.91,0.00,6.67,2.16,10.85,0.00,0.00,1.10
0,77.42,51.43,16.67,24.36,5.73,3.50,3.50,4.70,10.64,36.67,5.00,16.92,27.06,0.00,48.33,3.91,0.00,0.00,0.00,0.00,11.53,0.00,0.00,0.47,20.77,0.00,6.67,2.12,10.67,0.00,0.00,1.08
0,75.37,47.14,16.67,24.13,4.21,2.50,2.50,3.96,10.64,36.67,5.00,16.92,27.18,0.00,48.33,3.95,0.00,0.00,0.00,0.00,11.37,0.00,0.00,0.46,21.09,0.00,6.67,2.26,10.56,0.00,0.00,1.08
0,74.92,45.71,16.67,23.77,3.50,2.00,2.50,2.82,10.64,36.67,5.00,16.92,27.31,0.00,46.67,4.06,0.00,0.00,0.00,0.00,11.39,0.00,0.00,0.47,21.33,0.00,4.44,2.44,9.96,0.00,0.00,0.96
0,73.68,44.29,16.67,23.34,3.46,2.00,2.50,2.81,10.64,36.67,5.00,16.92,27.04,0.00,46.67,3.96,0.00,0.00,0.00,0.00,11.27,0.00,0.00,0.48,21.74,0.00,4.44,2.60,9.88,0.00,0.00,0.96
0,75.70,47.14,16.67,25.46,3.47,2.00,2.50,2.81,10.64,36.67,5.00,16.92,27.40,0.00,45.00,4.12,0.00,0.00,0.00,0.00,11.19,0.00,0.00,0.48,22.21,0.00,4.44,2.69,9.58,0.00,0.00,0.92
0,73.44,42.86,16.67,24.78,3.47,2.00,2.50,2.82,10.63,36.67,5.00,16.92,27.52,0.00,43.33,4.10,0.00,0.00,0.00,0.00,11.28,0.00,0.00,0.52,22.76,0.00,4.44,2.73,9.40,0.00,0.00,0.90
0,72.28,41.43,16.67,23.99,3.47,2.00,2.50,2.81,10.64,36.67,5.00,16.92,27.05,0.00,41.67,4.00,0.00,0.00,0.00,0.00,11.59,0.00,0.00,0.57,22.29,0.00,4.44,2.65,9.64,0.00,0.00,0.98
0,71.12,40.00,16.67,23.30,3.47,2.00,2.50,2.81,10.64,36.67,5.00,16.92,25.85,0.00,35.00,3.77,0.00,0.00,0.00,0.00,11.40,0.00,0.00,0.57,22.13,0.00,4.44,2.60,9.70,0.00,0.00,0.97
0,67.76,35.71,10.00,21.63,3.89,2.50,3.00,2.96,10.23,33.33,4.50,16.92,26.50,0.00,35.00,3.94,0.00,0.00,0.00,0.00,11.32,0.00,0.00,0.59,22.94,0.00,4.44,3.04,9.62,0.00,0.00,0.96
0,65.72,34.29,10.00,20.93,5.38,3.50,4.00,4.12,7.44,23.33,3.00,12.50,26.65,0.00,36.67,4.01,0.00,0.00,0.00,0.00,11.54,0.00,0.00,0.61,22.94,0.00,4.44,3.08,9.96,0.00,0.00,0.99
0,66.07,35.71,10.00,20.62,7.40,4.50,5.50,6.50,6.60,20.00,3.00,10.20,27.25,0.00,41.67,4.28,0.00,0.00,0.00,0.00,11.68,0.00,0.00,0.64,22.29,0.00,2.22,2.99,9.85,0.00,0.00,1.04
0,63.46,32.86,6.67,19.19,7.64,4.50,5.50,6.67,6.58,20.00,3.00,10.19,27.15,0.00,41.67,4.23,0.00,0.00,0.00,0.00,11.59,0.00,0.00,0.63,21.97,0.00,2.22,2.94,9.85,0.00,0.00,1.04
0,62.49,31.43,6.67,18.68,7.64,4.50,5.50,6.67,6.58,20.00,3.00,10.19,26.97,0.00,41.67,4.02,0.00,0.00,0.00,0.00,11.70,0.00,0.00,0.65,21.82,0.00,2.22,2.87,9.76,0.00,0.00,1.04
0,64.73,35.71,13.33,20.33,7.64,4.50,5.50,6.67,6.58,20.00,3.00,10.19,27.48,0.00,45.00,4.19,0.00,0.00,0.00,0.00,11.59,0.00,0.00,0.66,22.03,0.00,2.22,2.88,9.79,0.00,0.00,1.05
0,63.51,35.71,13.33,20.28,7.09,4.00,4.50,6.53,6.44,20.00,3.00,10.17,26.62,0.00,41.67,4.01,0.00,0.00,0.00,0.00,11.50,0.00,0.00,0.66,22.14,0.00,2.22,2.91,9.31,0.00,0.00,0.95
0,63.79,37.14,16.67,19.52,5.31,3.00,3.00,4.46,4.68,13.33,2.00,7.45,27.21,0.00,41.67,4.23,0.00,0.00,0.00,0.00,11.81,0.00,0.00,0.68,22.09,0.00,2.22,2.90,9.50,0.00,0.00,1.00
0,64.60,38.57,16.67,20.35,4.65,2.50,3.00,3.86,4.01,13.33,2.00,6.07,27.81,0.00,41.67,4.56,0.00,0.00,0.00,0.00,11.64,0.00,0.00,0.70,22.40,0.00,2.22,2.94,9.41,0.00,0.00,1.00
0,62.05,35.71,13.33,19.29,4.65,2.50,3.00,3.86,4.30,16.67,2.00,6.37,27.74,0.00,43.33,4.49,0.00,0.00,0.00,0.00,11.72,0.00,0.00,0.69,22.86,0.00,2.22,2.98,9.35,0.00,0.00,0.98
0,59.61,32.86,10.00,17.71,4.68,2.50,3.00,3.86,5.28,23.33,2.00,7.55,27.11,0.00,40.00,4.38,0.00,0.00,0.00,0.00,11.69,0.00,0.00,0.69,21.94,0.00,0.00,2.78,9.62,0.00,0.00,1.03
0,57.86,31.43,10.00,17.17,4.67,2.50,3.00,3.86,5.38,23.33,2.00,7.62,26.57,0.00,36.67,4.15,0.00,0.00,0.00,0.00,11.59,0.00,0.00,0.68,21.77,0.00,0.00,2.69,9.42,0.00,0.00,0.98
0,58.40,32.86,10.00,16.09,4.68,2.50,3.00,3.86,5.50,23.33,2.00,7.63,25.65,0.00,33.33,3.90,0.00,0.00,0.00,0.00,11.83,0.00,0.00,0.71,22.03,0.00,0.00,2.80,9.13,0.00,0.00,0.90
0,57.50,31.43,10.00,15.88,4.67,2.50,3.00,3.86,5.50,23.33,2.00,7.63,26.03,0.00,33.33,4.06,0.00,0.00,0.00,0.00,12.09,0.00,0.00,0.74,21.89,0.00,0.00,2.77,9.54,0.00,0.00,0.93
0,58.10,31.43,10.00,16.18,4.66,2.50,3.00,3.86,5.50,23.33,2.00,7.63,26.28,0.00,31.67,4.13,0.00,0.00,0.00,0.00,12.05,0.00,0.00,0.76,21.45,0.00,0.00,2.64,9.56,0.00,0.00,0.94
0,59.65,34.29,13.33,16.61,6.50,3.50,4.00,5.82,6.61,30.00,2.00,8.28,25.54,0.00,33.33,3.91,0.00,0.00,0.00,0.00,12.55,0.00,0.00,0.79,21.40,0.00,0.00,2.49,9.74,0.00,0.00,1.00
0,60.58,35.71,13.33,16.92,6.78,3.50,4.00,5.98,8.93,40.00,3.00,10.94,25.30,0.00,31.67,3.87,0.00,0.00,0.00,0.00,12.15,0.00,0.00,0.76,20.81,0.00,0.00,2.27,9.41,0.00,0.00,0.96
0,61.89,38.57,13.33,16.63,6.80,3.50,4.00,5.98,9.79,43.33,3.50,13.41,25.28,0.00,33.33,3.86,0.00,0.00,0.00,0.00,12.28,0.00,0.00,0.74,20.40,0.00,0.00,2.20,9.50,0.00,0.00,0.97
0,60.97,37.14,13.33,16.06,6.81,3.50,4.00,5.98,9.83,43.33,3.50,13.42,25.79,0.00,36.67,4.06,0.00,0.00,0.00,0.00,12.22,0.00,0.00,0.75,20.17,0.00,0.00,2.16,9.59,0.00,0.00,1.00
0,61.94,40.00,13.33,16.53,6.80,3.50,4.00,5.98,9.82,43.33,3.50,13.42,25.60,0.00,36.67,4.05,0.00,0.00,0.00,0.00,12.20,0.00,0.00,0.69,20.26,0.00,0.00,2.17,9.66,0.00,0.00,0.95
0,62.46,40.00,13.33,16.79,6.80,3.50,4.00,5.98,9.83,43.33,3.50,13.42,26.80,0.00,40.00,4.40,0.00,0.00,0.00,0.00,12.29,0.00,0.00,0.70,20.50,0.00,0.00,2.17,9.74,0.00,0.00,0.95
0,62.24,38.57,13.33,16.61,6.68,3.50,3.50,5.98,9.82,43.33,3.50,13.42,26.61,0.00,41.67,4.32,0.00,0.00,0.00,0.00,12.48,0.00,0.00,0.72,20.01,0.00,0.00,1.86,9.76,0.00,0.00,1.00
0,62.41,37.14,13.33,17.03,5.31,2.50,2.50,5.38,9.82,43.33,3.50,13.42,26.28,0.00,40.00,4.26,0.00,0.00,0.00,0.00,12.22,0.00,0.00,0.71,20.10,0.00,0.00,1.80,10.01,0.00,0.00,1.14
0,63.27,37.14,13.33,17.17,3.32,1.50,1.00,2.75,9.82,43.33,3.50,13.42,25.94,0.00,38.33,4.09,0.00,0.00,0.00,0.00,11.97,0.00,0.00,0.68,20.08,0.00,0.00,1.78,10.08,0.00,0.00,1.13
0,61.40,35.71,13.33,16.22,2.64,1.00,1.00,2.13,9.83,43.33,3.50,13.42,25.43,0.00,35.00,4.00,0.00,0.00,0.00,0.00,12.43,0.00,0.00,0.75,20.17,0.00,0.00,1.86,10.31,0.00,0.00,1.20
0,63.63,38.57,16.67,17.04,2.62,1.00,1.00,2.13,9.83,43.33,3.50,13.42,26.05,0.00,36.67,4.41,0.00,0.00,0.00,0.00,12.68,0.00,0.00,0.80,20.35,0.00,2.22,1.95,10.48,0.00,0.00,1.20
0,61.28,34.29,10.00,15.93,2.63,1.00,1.00,2.13,9.83,43.33,3.50,13.42,25.40,0.00,36.67,4.35,0.00,0.00,0.00,0.00,13.12,0.00,0.00,0.83,20.41,0.00,2.22,1.96,10.50,0.00,0.00,1.20
0,60.92,34.29,10.00,15.80,2.63,1.00,1.00,2.13,9.83,43.33,3.50,13.42,25.91,0.00,36.67,4.41,0.00,0.00,0.00,0.00,13.11,0.00,0.00,0.83,19.32,0.00,2.22,1.83,11.10,0.00,0.00,1.35
0,59.53,32.86,6.67,15.43,2.63,1.00,1.00,2.13,9.82,43.33,3.50,13.42,26.23,0.00,43.33,4.39,0.00,0.00,0.00,0.00,13.04,0.00,0.00,0.84,19.82,0.00,2.22,1.91,10.81,0.00,0.00,1.32
0,58.84,31.43,6.67,15.22,2.61,1.00,1.00,2.13,9.44,40.00,3.00,13.42,25.86,0.00,43.33,4.17,0.00,0.00,0.00,0.00,12.91,0.00,0.00,0.82,20.10,0.00,2.22,1.96,10.89,0.00,0.00,1.34
0,59.40,31.43,6.67,15.03,2.83,1.00,1.00,2.16,6.68,30.00,1.50,9.29,25.36,0.00,40.00,4.10,0.00,0.00,0.00,0.00,12.60,0.00,0.00,0.80,19.34,0.00,2.22,1.86,10.95,0.00,0.00,1.37
0,59.72,31.43,6.67,15.19,3.48,1.50,2.00,2.43,5.26,23.33,1.50,6.06,26.26,0.00,41.67,4.34,0.00,0.00,0.00,0.00,12.69,0.00,0.00,0.80,19.96,0.00,2.22,1.92,11.10,0.00,0.00,1.41
0,62.60,34.29,10.00,16.33,4.96,2.50,3.00,3.67,4.91,20.00,1.50,5.82,26.89,0.00,43.33,4.58,0.00,0.00,0.00,0.00,12.76,0.00,0.00,0.82,19.50,0.00,2.22,1.90,11.25,0.00,0.00,1.48
0,62.10,32.86,10.00,16.34,7.05,3.50,4.50,6.10,4.81,20.00,1.50,5.80,26.83,0.00,46.67,4.52,0.00,0.00,0.00,0.00,12.54,0.00,0.00,0.79,19.16,0.00,2.22,1.81,11.47,0.00,0.00,1.52
0,63.30,32.86,10.00,16.62,7.11,3.50,4.50,6.11,4.81,20.00,1.50,5.80,26.83,0.00,48.33,4.46,0.00,0.00,0.00,0.00,12.80,0.00,0.00,0.81,19.21,0.00,2.22,1.79,11.29,0.00,0.00,1.55
0,62.47,31.43,10.00,16.21,8.59,4.00,5.50,7.85,4.81,20.00,1.50,5.80,27.07,0.00,50.00,4.62,0.00,0.00,0.00,0.00,12.77,0.00,0.00,0.78,18.57,0.00,2.22,1.70,11.47,0.00,0.00,1.60
0,60.82,30.00,10.00,15.67,7.83,4.00,4.50,6.83,3.97,13.33,1.50,5.19,27.29,0.00,51.67,4.63,0.00,0.00,0.00,0.00,13.01,0.00,0.00,0.82,18.90,0.00,2.22,1.74,11.58,0.00,0.00,1.67
0,60.16,30.00,6.67,15.07,7.16,3.50,4.50,6.30,2.64,6.67,1.00,3.69,27.59,0.00,51.67,4.82,0.00,0.00,0.00,0.00,13.34,0.00,0.00,0.83,18.96,0.00,2.22,1.80,11.81,0.00,0.00,1.66
0,57.52,27.14,6.67,14.22,7.13,3.50,4.50,6.30,0.54,0.00,0.00,0.03,26.97,0.00,48.33,4.66,0.00,0.00,0.00,0.00,13.30,0.00,0.00,0.84,18.88,0.00,2.22,1.79,11.75,0.00,0.00,1.66
0,56.85,27.14,6.67,14.11,7.12,3.50,4.50,6.30,1.57,6.67,0.00,1.02,27.12,0.00,48.33,4.69,0.00,0.00,0.00,0.00,13.26,0.00,0.00,0.87,18.56,0.00,2.22,1.76,11.93,0.00,0.00,1.75
0,55.16,24.29,6.67,13.94,7.13,3.50,4.50,6.30,2.07,10.00,0.00,1.32,27.15,0.00,48.33,4.61,0.00,0.00,0.00,0.00,13.38,0.00,0.00,0.87,18.40,0.00,2.22,1.72,12.09,0.00,0.00,1.80
0,56.96,28.57,13.33,14.54,7.13,3.50,4.50,6.30,2.25,10.00,0.00,1.36,26.23,0.00,45.00,4.37,0.00,0.00,0.00,0.00,13.47,0.00,0.00,0.88,17.81,0.00,2.22,1.67,11.89,0.00,0.00,1.79
0,59.78,30.00,16.67,16.05,7.13,3.50,4.50,6.30,2.24,10.00,0.00,1.36,27.09,0.00,48.33,4.48,0.00,0.00,0.00,0.00,12.94,0.00,0.00,0.86,17.43,0.00,2.22,1.67,11.82,0.00,0.00,1.76
0,60.47,31.43,16.67,16.17,7.12,3.50,4.50,6.30,2.24,10.00,0.00,1.36,27.04,0.00,46.67,4.55,0.00,0.00,0.00,0.00,13.17,0.00,0.00,0.86,17.26,0.00,2.22,1.58,11.57,0.00,0.00,1.66
0,57.65,30.00,16.67,15.18,7.13,3.50,4.50,6.30,2.31,10.00,0.00,1.36,26.63,0.00,45.00,4.48,0.00,0.00,0.00,0.00,13.36,0.00,0.00,0.88,16.94,0.00,2.22,1.55,11.63,0.00,0.00,1.68
0,57.93,30.00,16.67,15.56,8.51,4.50,5.50,7.38,3.55,13.33,0.50,2.18,26.75,0.00,45.00,4.51,0.00,0.00,0.00,0.00,13.26,0.00,0.00,0.85,16.90,0.00,2.22,1.51,11.41,0.00,0.00,1.65
0,56.15,27.14,13.33,14.63,8.63,4.50,5.50,7.40,5.57,20.00,1.50,6.32,26.80,0.00,46.67,4.26,0.00,0.00,0.00,0.00,12.91,0.00,0.00,0.81,16.64,0.00,0.00,1.44,11.49,0.00,0.00,1.69
0,55.98,27.14,13.33,14.49,8.65,4.50,5.50,7.40,6.26,23.33,1.50,7.25,26.58,0.00,45.00,4.14,0.00,0.00,0.00,0.00,12.85,0.00,0.00,0.76,16.40,0.00,0.00,1.35,11.68,0.00,0.00,1.72
0,60.08,31.43,20.00,16.40,8.65,4.50,5.50,7.40,6.27,23.33,1.50,7.25,26.67,0.00,46.67,4.13,0.00,0.00,0.00,0.00,12.79,0.00,0.00,0.74,17.23,0.00,0.00,1.41,11.22,0.00,0.00,1.64
0,60.09,30.00,20.00,15.95,8.65,4.50,5.50,7.40,6.28,23.33,1.50,7.25,27.10,0.00,45.00,4.25,0.00,0.00,0.00,0.00,12.85,0.00,0.00,0.73,16.75,0.00,0.00,1.32,11.37,0.00,0.00,1.61
0,60.59,31.43,20.00,16.26,8.65,4.50,5.50,7.40,6.26,23.33,1.50,7.25,26.49,0.00,41.67,4.14,0.00,0.00,0.00,0.00,12.94,0.00,0.00,0.73,16.04,0.00,0.00,1.22,11.51,0.00,0.00,1.67
0,59.80,31.43,20.00,15.79,8.47,4.50,5.50,7.38,6.25,23.33,1.50,7.25,26.59,0.00,41.67,4.08,0.00,0.00,0.00,0.00,13.06,0.00,0.00,0.75,16.16,0.00,0.00,1.21,11.59,0.00,0.00,1.67
0,61.22,35.71,20.00,16.19,7.89,4.00,4.50,7.15,6.24,23.33,1.50,7.25,26.77,0.00,41.67,4.29,0.00,0.00,0.00,0.00,13.04,0.00,0.00,0.75,16.16,0.00,0.00,1.24,11.52,0.00,0.00,1.66
0,61.25,34.29,16.67,15.61,6.36,3.00,3.50,5.96,6.24,23.33,1.50,7.25,26.12,0.00,40.00,4.03,0.00,0.00,0.00,0.00,13.09,0.00,0.00,0.78,15.82,0.00,0.00,1.20,11.37,0.00,0.00,1.64
0,61.94,35.71,16.67,15.83,4.35,2.00,2.00,3.59,6.24,23.33,1.50,7.25,26.21,0.00,36.67,4.06,0.00,0.00,0.00,0.00,13.28,0.00,0.00,0.80,15.69,0.00,0.00,1.18,11.18,0.00,0.00,1.59
0,61.38,37.14,16.67,16.08,4.11,2.00,2.00,3.41,6.23,23.33,1.50,7.25,26.39,0.00,36.67,4.11,0.00,0.00,0.00,0.00,12.86,0.00,0.00,0.78,16.34,0.00,2.22,1.28,11.12,0.00,0.00,1.58
0,62.04,37.14,16.67,16.14,3.68,2.00,1.50,3.41,6.23,23.33,1.50,7.25,26.09,0.00,36.67,3.99,0.00,0.00,0.00,0.00,13.27,0.00,0.00,0.83,16.68,0.00,2.22,1.31,11.26,0.00,0.00,1.60
0,63.67,40.00,16.67,17.36,1.98,1.00,1.00,1.11,6.24,23.33,1.50,7.25,25.70,0.00,31.67,3.90,0.00,0.00,0.00,0.00,12.93,0.00,0.00,0.77,16.75,0.00,2.22,1.37,11.11,0.00,0.00,1.61
0,65.19,40.00,20.00,18.51,1.96,1.00,1.00,1.11,6.24,23.33,1.50,7.25,26.39,0.00,35.00,3.99,0.00,0.00,0.00,0.00,13.06,0.00,0.00,0.79,16.80,0.00,2.22,1.36,11.00,0.00,0.00,1.60
0,63.44,37.14,20.00,17.74,1.95,1.00,1.00,1.10,6.24,23.33,1.50,7.25,26.31,0.00,35.00,3.89,0.00,0.00,0.00,0.00,13.30,0.00,0.00,0.81,16.71,0.00,2.22,1.35,11.22,0.00,0.00,1.61
0,66.00,38.57,23.33,18.74,2.29,1.50,1.00,1.18,5.40,20.00,1.50,6.42,25.94,0.00,31.67,3.91,0.00,0.00,0.00,0.00,13.42,0.00,0.00,0.80,16.98,0.00,2.22,1.35,11.07,0.00,0.00,1.56
0,65.22,38.57,23.33,18.82,3.33,2.50,2.00,1.78,4.69,13.33,1.50,5.95,26.36,0.00,35.00,3.87,0.00,0.00,0.00,0.00,13.43,0.00,0.00,0.80,17.58,0.00,4.44,1.43,11.05,0.00,0.00,1.51
0,65.11,37.14,20.00,19.13,5.69,3.50,4.00,4.18,4.48,13.33,1.50,5.90,26.77,0.00,36.67,3.88,0.00,0.00,0.00,0.00,13.31,0.00,0.00,0.78,18.78,0.00,4.44,1.73,11.12,0.00,0.00,1.53
0,63.56,37.14,16.67,17.95,8.61,5.00,6.00,7.42,4.46,13.33,1.50,5.89,26.33,0.00,35.00,3.78,0.00,0.00,0.00,0.00,13.24,0.00,0.00,0.77,18.76,0.00,4.44,1.73,11.39,0.00,0.00,1.60
0,64.20,37.14,16.67,17.52,10.82,6.00,8.00,10.98,4.46,13.33,1.50,5.89,26.61,0.00,35.00,3.96,0.00,0.00,0.00,0.00,13.47,0.00,0.00,0.80,18.98,0.00,4.44,1.73,11.81,0.00,0.00,1.70
0,65.35,38.57,16.67,18.01,11.52,6.50,8.00,11.62,4.45,13.33,1.50,5.89,27.12,0.00,35.00,4.02,0.00,0.00,0.00,0.00,13.20,0.00,0.00,0.76,19.38,0.00,6.67,1.81,11.52,0.00,0.00,1.62
0,64.40,37.14,16.67,17.32,10.25,5.50,7.00,10.65,4.16,13.33,1.50,5.82,27.00,0.00,35.00,3.97,0.00,0.00,0.00,0.00,13.12,0.00,0.00,0.75,19.49,0.00,6.67,1.82,11.57,0.00,0.00,1.61
0,64.57,37.14,16.67,17.45,10.03,5.50,7.00,10.53,2.23,6.67,0.50,3.68,26.44,0.00,33.33,3.88,0.00,0.00,0.00,0.00,12.99,0.00,0.00,0.74,19.37,0.00,6.67,1.80,11.33,0.00,0.00,1.57
0,64.44,35.71,16.67,17.16,10.00,5.50,7.00,10.53,0.55,0.00,0.00,0.03,26.40,0.00,33.33,3.80,0.00,0.00,0.00,0.00,12.73,0.00,0.00,0.72,19.75,0.00,6.67,1.84,11.16,0.00,0.00,1.51
0,62.01,31.43,10.00,16.11,10.00,5.50,7.00,10.53,1.94,6.67,0.50,1.70,25.96,0.00,33.33,3.78,0.00,0.00,0.00,0.00,12.73,0.00,0.00,0.73,19.92,0.00,6.67,1.87,11.48,0.00,0.00,1.62
0,61.63,32.86,10.00,16.22,10.00,5.50,7.00,10.53,3.28,13.33,0.50,3.13,25.47,0.00,31.67,3.64,0.00,0.00,0.00,0.00,13.03,0.00,0.00,0.74,20.48,0.00,6.67,2.02,11.37,0.00,0.00,1.61
0,59.98,28.57,10.00,15.52,9.99,5.50,7.00,10.53,3.95,20.00,0.50,3.67,25.40,0.00,33.33,3.59,0.00,0.00,0.00,0.00,12.99,0.00,0.00,0.73,21.12,0.00,6.67,2.07,11.30,0.00,0.00,1.57
0,60.75,28.57,10.00,15.67,9.99,5.50,7.00,10.53,3.97,20.00,0.50,3.67,24.96,0.00,33.33,3.55,0.00,0.00,0.00,0.00,12.99,0.00,0.00,0.72,20.71,0.00,6.67,2.02,11.45,0.00,0.00,1.61
0,57.25,22.86,10.00,14.61,10.00,5.50,7.00,10.53,3.97,20.00,0.50,3.67,24.17,0.00,31.67,3.21,0.00,0.00,0.00,0.00,13.12,0.00,0.00,0.72,21.06,0.00,8.89,2.11,11.49,0.00,0.00,1.62
0,58.10,25.71,10.00,14.97,11.92,6.50,8.00,12.55,4.37,23.33,0.50,3.78,24.89,0.00,33.33,3.31,0.00,0.00,0.00,0.00,13.33,0.00,0.00,0.70,21.64,0.00,8.89,2.24,11.47,0.00,0.00,1.58
0,56.50,24.29,10.00,14.20,12.36,7.00,8.50,12.74,5.97,26.67,1.50,6.37,24.57,0.00,31.67,3.17,0.00,0.00,0.00,0.00,13.26,0.00,0.00,0.71,21.63,0.00,8.89,2.25,11.63,0.00,0.00,1.63
0,57.30,24.29,10.00,14.27,12.56,7.00,8.50,12.78,8.35,36.67,2.50,10.50,24.16,0.00,30.00,3.12,0.00,0.00,0.00,0.00,13.16,0.00,0.00,0.68,20.85,0.00,6.67,2.12,11.85,0.00,0.00,1.67
0,56.41,22.86,10.00,14.11,12.57,7.00,8.50,12.78,8.64,36.67,2.50,10.86,23.77,0.00,26.67,3.10,0.00,0.00,0.00,0.00,12.63,0.00,0.00,0.62,20.53,0.00,6.67,2.10,11.73,0.00,0.00,1.62
0,55.36,20.00,10.00,13.34,12.58,7.00,8.50,12.78,8.64,36.67,2.50,10.86,24.23,0.00,30.00,3.19,0.00,0.00,0.00,0.00,12.34,0.00,0.00,0.60,20.30,0.00,6.67,2.05,11.64,0.00,0.00,1.55
0,55.84,20.00,10.00,13.56,12.56,7.00,8.50,12.78,8.64,36.67,2.50,10.86,23.75,0.00,28.33,3.03,0.00,0.00,0.00,0.00,11.79,0.00,0.00,0.56,20.17,0.00,6.67,2.00,11.72,0.00,0.00,1.54
0,57.18,20.00,10.00,14.01,12.56,7.00,8.50,12.78,8.64,36.67,2.50,10.86,23.50,0.00,28.33,3.04,0.00,0.00,0.00,0.00,11.54,0.00,0.00,0.53,20.53,0.00,6.67,2.12,11.33,0.00,0.00,1.49
0,57.13,21.43,10.00,14.02,12.31,6.50,8.50,12.72,8.64,36.67,2.50,10.86,23.82,0.00,30.00,3.13,0.00,0.00,0.00,0.00,11.16,0.00,0.00,0.51,20.45,0.00,6.67,2.13,11.24,0.00,0.00,1.47
0,53.87,18.57,6.67,12.40,11.26,5.50,7.50,12.15,8.64,36.67,2.50,10.86,23.22,0.00,26.67,3.12,0.00,0.00,0.00,0.00,11.04,0.00,0.00,0.49,20.17,0.00,4.44,2.15,11.07,0.00,0.00,1.42
0,51.31,17.14,3.33,11.15,9.26,4.50,6.00,9.87,8.64,36.67,2.50,10.86,23.07,0.00,25.00,3.12,0.00,0.00,0.00,0.00,10.97,0.00,0.00,0.48,19.73,0.00,4.44,2.01,10.84,0.00,0.00,1.36
0,52.44,20.00,3.33,11.82,7.15,3.50,4.00,7.26,8.64,36.67,2.50,10.86,22.64,0.00,23.33,3.01,0.00,0.00,0.00,0.00,10.76,0.00,0.00,0.46,19.10,0.00,4.44,1.90,10.52,0.00,0.00,1.30
0,50.39,17.14,3.33,11.27,4.79,2.50,2.00,4.75,8.64,36.67,2.50,10.86,21.43,0.00,21.67,2.63,0.00,0.00,0.00,0.00,10.77,0.00,0.00,0.44,19.20,0.00,4.44,1.92,9.93,0.00,0.00,1.19
0,48.98,15.71,3.33,11.07,3.01,1.50,1.50,2.27,8.64,36.67,2.50,10.86,21.47,0.00,21.67,2.68,0.00,0.00,0.00,0.00,10.51,0.00,0.00,0.40,19.11,0.00,2.22,1.95,9.87,0.00,0.00,1.09
0,50.66,17.14,3.33,11.65,2.98,1.50,1.50,2.26,8.64,36.67,2.50,10.86,21.45,0.00,26.67,2.60,0.00,0.00,0.00,0.00,10.39,0.00,0.00,0.39,18.74,0.00,2.22,1.90,9.78,0.00,0.00,1.08
0,51.30,18.57,3.33,12.36,2.97,1.50,1.50,2.26,8.64,36.67,2.50,10.86,21.25,0.00,28.33,2.55,0.00,0.00,0.00,0.00,10.51,0.00,0.00,0.40,18.50,0.00,2.22,1.90,9.87,0.00,0.00,1.09
0,52.43,18.57,3.33,13.10,3.71,2.50,2.50,2.58,8.57,36.67,2.50,10.85,21.61,0.00,26.67,2.62,0.00,0.00,0.00,0.00,10.55,0.00,0.00,0.41,18.70,0.00,2.22,1.92,9.84,0.00,0.00,1.07
0,53.54,21.43,6.67,13.75,5.58,3.50,4.00,4.51,7.23,30.00,2.00,9.33,21.90,0.00,26.67,2.68,0.00,0.00,0.00,0.00,10.44,0.00,0.00,0.40,18.62,0.00,2.22,1.92,9.56,0.00,0.00,1.00
0,53.48,20.00,6.67,13.43,7.93,4.50,6.00,6.98,5.95,23.33,2.00,7.83,21.85,0.00,28.33,2.70,0.00,0.00,0.00,0.00,10.15,0.00,0.00,0.40,18.29,0.00,2.22,1.80,9.19,0.00,0.00,0.92
0,54.58,21.43,6.67,14.12,10.81,6.00,8.00,10.18,5.15,16.67,2.00,7.21,22.02,0.00,30.00,2.72,0.00,0.00,0.00,0.00,10.19,0.00,0.00,0.41,18.43,0.00,2.22,1.89,9.06,0.00,0.00,0.87
0,56.07,24.29,6.67,14.92,12.88,7.00,10.00,13.37,5.10,16.67,2.00,7.20,22.86,0.00,33.33,2.91,0.00,0.00,0.00,0.00,9.92,0.00,0.00,0.40,18.99,0.00,2.22,2.02,8.78,0.00,0.00,0.83
0,58.02,25.71,6.67,15.55,13.62,7.50,10.00,13.95,5.11,16.67,2.00,7.20,23.49,0.00,33.33,3.17,0.00,0.00,0.00,0.00,10.10,0.00,0.00,0.41,18.94,0.00,0.00,1.98,8.65,0.00,0.00,0.81
0,59.13,25.71,6.67,16.12,11.87,6.50,9.00,12.11,5.10,16.67,2.00,7.20,24.08,0.00,36.67,3.26,0.00,0.00,0.00,0.00,10.16,0.00,0.00,0.43,19.57,0.00,0.00,2.05,8.49,0.00,0.00,0.78
0,58.36,24.29,6.67,16.11,11.31,6.00,8.50,11.75,4.14,13.33,1.50,6.88,24.60,0.00,41.67,3.30,0.00,0.00,0.00,0.00,10.04,0.00,0.00,0.43,19.39,0.00,0.00,1.99,8.51,0.00,0.00,0.77
0,59.50,27.14,6.67,16.78,11.07,6.00,8.50,11.70,1.35,3.33,0.00,2.57,24.36,0.00,45.00,3.24,0.00,0.00,0.00,0.00,10.36,0.00,0.00,0.44,19.33,0.00,0.00,1.98,8.21,0.00,0.00,0.72
0,58.95,25.71,6.67,16.72,11.05,6.00,8.50,11.70,2.53,6.67,1.00,3.45,24.68,0.00,45.00,3.35,0.00,0.00,0.00,0.00,10.44,0.00,0.00,0.46,20.20,0.00,2.22,2.16,7.95,0.00,0.00,0.64
0,59.16,27.14,6.67,17.10,11.05,6.00,8.50,11.70,4.58,13.33,2.00,7.18,24.58,0.00,43.33,3.35,0.00,0.00,0.00,0.00,10.65,0.00,0.00,0.45,20.32,0.00,2.22,2.18,7.55,0.00,0.00,0.57
0,56.25,24.29,3.33,15.66,11.06,6.00,8.50,11.70,4.72,13.33,2.00,7.22,23.92,0.00,41.67,3.26,0.00,0.00,0.00,0.00,11.04,0.00,0.00,0.48,20.24,0.00,4.44,2.18,7.49,0.00,0.00,0.55
0,55.45,25.71,3.33,15.07,11.06,6.00,8.50,11.70,4.72,13.33,2.00,7.22,23.99,0.00,41.67,3.34,0.00,0.00,0.00,0.00,11.22,0.00,0.00,0.50,19.98,0.00,4.44,2.10,7.51,0.00,0.00,0.58
0,57.88,28.57,3.33,16.48,11.05,6.00,8.50,11.70,4.72,13.33,2.00,7.22,24.57,0.00,43.33,3.62,0.00,0.00,0.00,0.00,10.95,0.00,0.00,0.49,20.14,0.00,4.44,2.10,7.45,0.00,0.00,0.57
0,57.86,27.14,3.33,16.38,11.04,6.00,8.50,11.70,4.73,13.33,2.00,7.22,24.78,0.00,43.33,3.65,0.00,0.00,0.00,0.00,11.02,0.00,0.00,0.49,19.89,0.00,4.44,2.02,7.45,0.00,0.00,0.58
0,59.64,30.00,3.33,16.67,12.52,7.00,9.50,12.82,5.88,16.67,2.50,8.79,25.91,0.00,46.67,3.86,0.00,0.00,0.00,0.00,11.43,0.00,0.00,0.53,20.22,0.00,6.67,2.15,7.64,0.00,0.00,0.59
0,60.27,28.57,3.33,16.51,13.08,7.50,10.50,13.07,8.16,26.67,3.50,12.59,25.87,0.00,46.67,3.92,0.00,0.00,0.00,0.00,11.49,0.00,0.00,0.53,20.96,0.00,6.67,2.24,7.59,0.00,0.00,0.59
0,60.64,28.57,3.33,16.83,13.09,7.50,10.50,13.07,8.45,26.67,3.50,12.95,26.58,0.00,45.00,4.14,0.00,0.00,0.00,0.00,11.51,0.00,0.00,0.53,21.21,0.00,6.67,2.27,8.00,0.00,0.00,0.63
0,60.74,28.57,3.33,16.94,13.09,7.50,10.50,13.07,8.46,26.67,3.50,12.95,27.54,0.00,48.33,4.59,0.00,0.00,0.00,0.00,11.54,0.00,0.00,0.53,21.45,0.00,8.89,2.26,7.79,0.00,0.00,0.60
0,61.35,30.00,3.33,17.60,13.08,7.50,10.50,13.07,8.46,26.67,3.50,12.95,26.76,0.00,43.33,4.54,0.00,0.00,0.00,0.00,11.83,0.00,0.00,0.57,21.58,0.00,8.89,2.27,7.83,0.00,0.00,0.62
0,60.06,28.57,3.33,16.84,13.08,7.50,10.50,13.07,8.46,26.67,3.50,12.95,26.89,0.00,41.67,4.56,0.00,0.00,0.00,0.00,11.80,0.00,0.00,0.58,22.05,0.00,8.89,2.33,7.91,0.00,0.00,0.64
0,59.15,28.57,3.33,16.31,12.52,7.00,9.50,12.81,8.45,26.67,3.50,12.95,27.34,0.00,43.33,4.63,0.00,0.00,0.00,0.00,12.15,0.00,0.00,0.61,22.32,0.00,11.11,2.42,7.79,0.00,0.00,0.65
0,56.52,25.71,0.00,15.17,10.62,5.50,8.00,10.98,8.45,26.67,3.50,12.95,27.34,0.00,41.67,4.88,0.00,0.00,0.00,0.00,12.50,0.00,0.00,0.66,22.35,0.00,11.11,2.49,7.89,0.00,0.00,0.65
0,55.04,25.71,0.00,14.87,8.57,4.50,6.50,8.51,8.47,26.67,3.50,12.95,27.63,0.00,40.00,5.02,0.00,0.00,0.00,0.00,12.27,0.00,0.00,0.66,21.70,0.00,11.11,2.44,7.86,0.00,0.00,0.66
0,56.02,28.57,0.00,15.43,6.45,3.50,4.50,5.89,8.47,26.67,3.50,12.95,27.67,0.00,36.67,5.07,0.00,0.00,0.00,0.00,12.11,0.00,0.00,0.66,21.20,0.00,11.11,2.38,8.21,0.00,0.00,0.76
0,53.60,25.71,0.00,14.58,4.19,2.50,2.50,3.54,8.47,26.67,3.50,12.95,27.42,0.00,36.67,4.99,0.00,0.00,0.00,0.00,12.42,0.00,0.00,0.65,21.51,0.00,11.11,2.32,8.10,0.00,0.00,0.75
0,53.17,25.71,0.00,14.37,2.52,1.50,2.00,1.41,8.46,26.67,3.50,12.95,26.66,0.00,38.33,4.79,0.00,0.00,0.00,0.00,12.56,0.00,0.00,0.67,21.95,0.00,11.11,2.44,8.28,0.00,0.00,0.77
0,50.83,24.29,0.00,13.68,2.41,1.50,2.00,1.38,8.46,26.67,3.50,12.95,26.20,0.00,35.00,4.71,0.00,0.00,0.00,0.00,12.59,0.00,0.00,0.66,21.38,0.00,11.11,2.37,8.42,0.00,0.00,0.78
0,51.74,24.29,0.00,14.58,2.41,1.50,2.00,1.38,8.45,26.67,3.50,12.95,26.11,0.00,31.67,4.80,0.00,0.00,0.00,0.00,12.69,0.00,0.00,0.70,22.36,0.00,13.33,2.55,8.48,0.00,0.00,0.84
0,51.27,24.29,0.00,14.95,2.42,1.50,2.00,1.38,8.45,26.67,3.50,12.95,27.13,0.00,33.33,5.12,0.00,0.00,0.00,0.00,12.83,0.00,0.00,0.74,22.75,0.00,13.33,2.67,9.00,0.00,0.00,0.93
0,51.47,25.71,0.00,15.28,3.07,2.00,3.00,1.62,6.55,20.00,2.50,9.84,27.74,0.00,35.00,5.16,0.00,0.00,0.00,0.00,12.79,0.00,0.00,0.75,22.62,0.00,11.11,2.58,9.16,0.00,0.00,1.01
0,49.93,24.29,0.00,14.96,4.99,3.00,4.50,3.36,4.48,13.33,1.50,6.04,27.19,0.00,35.00,5.03,0.00,0.00,0.00,0.00,13.25,0.00,0.00,0.77,22.59,0.00,11.11,2.58,9.36,0.00,0.00,1.03
0,50.20,25.71,0.00,14.88,6.72,4.50,6.00,4.54,4.18,13.33,1.50,5.74,27.42,0.00,36.67,5.15,0.00,0.00,0.00,0.00,13.27,0.00,0.00,0.79,22.12,0.00,8.89,2.51,10.15,0.00,0.00,1.24
0,50.22,25.71,0.00,14.84,8.36,5.50,8.00,6.37,4.17,13.33,1.50,5.74,28.11,0.00,40.00,5.20,0.00,0.00,0.00,0.00,13.25,0.00,0.00,0.78,23.47,0.00,11.11,2.64,10.27,0.00,0.00,1.29
1,47.87,21.43,0.00,13.64,8.94,6.00,8.00,6.79,4.17,13.33,1.50,5.74,27.94,0.00,38.33,5.41,0.00,0.00,0.00,0.00,14.27,0.00,0.00,0.93,24.52,0.00,15.56,2.99,10.50,0.00,0.00,1.29
1,48.20,22.86,0.00,14.08,8.96,6.00,8.00,6.79,4.17,13.33,1.50,5.74,27.72,0.00,40.00,5.33,0.00,0.00,0.00,0.00,14.71,0.00,0.00,0.98,25.54,0.00,17.78,3.45,10.56,0.00,0.00,1.33
1,46.99,18.57,0.00,14.05,7.62,5.00,7.00,5.75,3.84,13.33,1.00,5.74,27.18,0.00,36.67,5.20,0.00,0.00,0.00,0.00,15.60,0.00,0.00,1.14,25.29,0.00,17.78,3.38,10.55,0.00,0.00,1.36
1,46.38,18.57,0.00,13.94,6.95,4.50,6.00,5.42,1.35,3.33,0.00,2.51,27.78,0.00,36.67,5.30,0.00,0.00,0.00,0.00,16.06,0.00,0.00,1.25,25.53,0.00,17.78,3.51,10.88,0.00,0.00,1.46
1,46.97,18.57,0.00,14.17,6.90,4.50,6.00,5.42,0.48,0.00,0.00,0.02,27.98,0.00,40.00,5.33,0.00,0.00,0.00,0.00,16.47,0.00,0.00,1.30,25.65,0.00,17.78,3.58,11.06,0.00,0.00,1.51
1,47.95,20.00,0.00,14.08,6.91,4.50,6.00,5.42,2.77,6.67,1.00,3.47,27.33,0.00,38.33,5.12,0.00,0.00,0.00,0.00,16.90,0.00,0.00,1.33,25.20,0.00,15.56,3.49,11.22,0.00,0.00,1.56
1,48.37,21.43,0.00,13.83,6.92,4.50,6.00,5.42,4.70,16.67,2.00,6.38,28.20,0.00,40.00,5.35,0.00,0.00,0.00,0.00,16.90,0.00,0.00,1.31,26.13,0.00,17.78,3.65,11.20,0.00,0.00,1.56
1,47.00,20.00,0.00,13.53,6.92,4.50,6.00,5.42,5.09,20.00,2.00,6.91,28.70,0.00,41.67,5.55,0.00,0.00,0.00,0.00,17.82,0.00,0.00,1.44,25.89,0.00,17.78,3.63,11.48,0.00,0.00,1.63
1,51.27,24.29,3.33,15.70,6.92,4.50,6.00,5.42,5.09,20.00,2.00,6.91,29.33,0.00,46.67,5.79,0.00,0.00,0.00,0.00,19.07,0.00,0.00,1.66,27.94,0.00,17.78,5.18,11.76,0.00,0.00,1.70
1,57.86,30.00,10.00,20.90,6.91,4.50,6.00,5.42,5.09,20.00,2.00,6.91,29.58,0.00,50.00,5.94,0.00,0.00,0.00,0.00,22.10,0.00,0.00,2.26,31.24,4.44,24.44,7.42,12.18,0.00,0.00,1.80
1,63.52,34.29,13.33,24.13,7.32,4.50,6.00,5.42,5.24,20.00,2.00,6.94,30.49,0.00,56.67,5.80,0.00,0.00,0.00,0.00,27.32,6.67,5.00,4.75,33.40,6.67,24.44,8.52,12.78,0.00,0.00,1.96
1,69.78,37.14,20.00,29.03,8.94,5.50,7.00,7.44,6.84,26.67,2.50,9.12,30.97,0.00,60.00,6.06,0.00,0.00,0.00,0.00,32.60,16.67,5.00,7.95,36.61,6.67,31.11,11.56,12.93,0.00,0.00,2.01
1,77.92,41.43,30.00,34.93,8.99,5.50,7.00,7.45,8.88,33.33,3.50,12.77,34.36,5.00,63.33,7.91,0.00,0.00,0.00,0.00,40.40,26.67,15.00,13.18,38.43,6.67,33.33,12.71,13.13,0.00,0.00,1.97
1,76.50,38.57,30.00,34.26,8.98,5.50,7.00,7.45,9.12,33.33,3.50,13.03,38.91,15.00,68.33,9.71,0.00,0.00,0.00,0.00,44.95,36.67,20.00,16.92,42.89,11.11,44.44,14.60,13.62,0.00,0.00,2.03
1,81.42,44.29,36.67,36.55,8.98,5.50,7.00,7.45,9.13,33.33,3.50,13.04,44.80,25.00,71.67,15.19,0.00,0.00,0.00,0.00,51.93,50.00,30.00,20.59,50.90,15.56,53.33,23.96,16.47,10.00,0.00,3.82
1,85.98,50.00,43.33,39.21,8.98,5.50,7.00,7.45,9.14,33.33,3.50,13.04,46.53,25.00,76.67,15.68,0.00,0.00,0.00,0.00,56.42,60.00,35.00,23.21,53.51,17.78,57.78,24.93,16.40,10.00,0.00,3.81
1,91.42,54.29,53.33,42.48,8.97,5.50,7.00,7.45,9.14,33.33,3.50,13.04,49.15,30.00,80.00,17.57,0.00,0.00,0.00,0.00,63.45,73.33,50.00,26.96,57.98,24.44,66.67,27.09,17.02,10.00,0.00,3.97
1,95.97,57.14,63.33,45.10,8.36,5.00,6.00,7.23,9.14,33.33,3.50,13.04,50.76,35.00,83.33,18.07,0.00,0.00,0.00,0.00,67.43,80.00,55.00,28.85,63.12,28.89,73.33,33.10,17.19,10.00,0.00,3.96
1,102.57,60.00,66.67,51.74,6.67,4.00,5.00,5.59,9.15,33.33,3.50,13.04,54.31,40.00,88.33,19.65,0.00,0.00,0.00,0.00,71.07,86.67,60.00,30.13,69.39,35.56,80.00,38.35,18.41,10.00,0.00,4.18
1,109.79,64.29,76.67,58.51,5.40,3.00,3.50,4.58,9.15,33.33,3.50,13.04,56.29,45.00,93.33,21.56,0.15,0.00,0.00,0.04,74.16,93.33,60.00,31.50,73.70,40.00,88.89,40.50,19.83,13.33,0.00,5.06
1,119.30,71.43,83.33,65.86,3.91,2.00,1.50,3.67,9.14,33.33,3.50,13.04,59.36,50.00,93.33,23.09,0.30,0.00,0.00,0.04,80.05,103.33,65.00,35.01,80.70,46.67,93.33,50.41,21.42,16.67,0.00,5.73
1,126.54,78.57,96.67,69.33,2.46,1.00,1.00,2.04,9.14,33.33,3.50,13.04,64.01,60.00,103.33,25.54,1.18,1.00,0.00,1.10,84.87,113.33,70.00,38.25,84.46,51.11,93.33,52.85,22.67,16.67,0.00,5.99
1,132.16,81.43,103.33,74.74,2.45,1.00,1.00,2.04,9.15,33.33,3.50,13.04,68.52,70.00,108.33,27.45,2.36,2.00,5.00,5.06,90.20,123.33,70.00,40.85,89.94,55.56,100.00,57.93,24.80,23.33,0.00,7.11
1,139.69,87.14,113.33,79.84,2.45,1.00,1.00,2.04,9.15,33.33,3.50,13.04,71.74,70.00,115.00,29.69,4.05,3.50,10.00,10.25,96.37,133.33,80.00,46.80,91.36,55.56,106.67,58.50,25.16,23.33,0.00,7.32
1,146.89,92.86,126.67,83.68,2.45,1.00,1.00,2.04,9.14,33.33,3.50,13.04,78.30,85.00,120.00,34.08,4.27,3.50,10.00,10.63,101.81,146.67,85.00,49.44,92.56,55.56,115.56,58.91,26.48,30.00,0.00,8.06
1,148.30,94.29,126.67,85.14,2.45,1.00,1.00,2.04,9.14,33.33,3.50,13.04,82.17,100.00,123.33,37.15,4.28,3.50,10.00,10.63,106.31,160.00,95.00,51.55,99.39,62.22,124.44,64.01,27.61,30.00,0.00,9.16
1,157.62,102.86,143.33,90.46,3.69,2.00,2.00,2.67,7.21,26.67,2.50,9.82,85.87,110.00,126.67,39.67,5.29,4.50,15.00,13.59,111.97,170.00,100.00,55.36,105.97,68.89,135.56,68.65,29.26,33.33,0.00,9.90
1,165.16,104.29,153.33,100.35,5.49,3.50,4.00,3.78,5.38,20.00,1.50,6.88,89.58,125.00,131.67,41.56,5.75,5.00,15.00,14.54,116.40,180.00,105.00,57.18,108.69,71.11,137.78,71.02,30.62,33.33,0.00,10.37
1,175.23,110.00,166.67,108.10,7.50,4.50,6.00,6.54,4.50,13.33,1.50,6.14,92.55,130.00,136.67,42.79,5.76,5.00,15.00,14.54,122.31,196.67,105.00,59.34,111.51,73.33,144.44,72.34,31.61,33.33,0.00,10.96
1,176.67,111.43,170.00,109.15,8.21,5.00,6.00,7.16,4.48,13.33,1.50,6.14,94.20,130.00,138.33,43.16,5.76,5.00,15.00,14.54,125.24,203.33,110.00,62.34,116.07,77.78,151.11,75.72,32.20,33.33,0.00,11.22
1,178.99,111.43,173.33,113.24,8.23,5.00,6.00,7.16,5.28,20.00,1.50,6.85,98.31,145.00,138.33,47.86,6.77,6.00,15.00,15.69,129.56,216.67,120.00,63.94,117.26,77.78,151.11,75.01,32.04,33.33,0.00,11.22
1,180.89,112.86,176.67,114.59,8.21,5.00,6.00,7.16,5.90,26.67,1.50,7.24,100.36,145.00,136.67,48.48,8.64,7.50,22.50,22.09,131.06,223.33,130.00,65.42,117.99,75.56,153.33,75.04,32.58,33.33,0.00,11.36
1,178.22,110.00,180.00,113.00,6.72,4.00,5.00,5.16,4.72,23.33,1.00,6.39,104.87,160.00,136.67,51.94,9.74,8.50,25.00,25.41,129.83,220.00,125.00,63.68,118.00,77.78,155.56,74.21,33.85,33.33,0.00,11.80
1,172.19,107.14,170.00,108.47,8.66,5.50,6.50,7.43,2.66,16.67,0.00,2.06,106.87,160.00,141.67,53.31,10.93,9.50,27.50,28.97,126.49,220.00,120.00,60.47,121.13,82.22,164.44,75.53,34.81,33.33,0.00,12.30
1,178.23,110.00,176.67,113.91,10.40,6.50,7.50,9.73,3.84,20.00,1.00,4.17,108.98,160.00,143.33,54.39,11.52,10.00,27.50,29.46,124.91,220.00,120.00,58.15,119.56,80.00,160.00,74.51,35.55,33.33,0.00,12.73
1,178.51,110.00,173.33,117.05,10.44,6.50,7.50,9.74,4.09,20.00,1.00,4.51,104.26,150.00,146.67,49.82,12.67,11.00,32.50,33.29,121.96,213.33,115.00,56.49,114.27,77.78,157.78,68.92,33.92,23.33,0.00,11.44
1,177.51,105.71,173.33,116.90,10.43,6.50,7.50,9.74,4.09,20.00,1.00,4.51,108.55,165.00,150.00,52.45,12.75,11.00,32.50,33.31,120.05,210.00,110.00,54.70,114.06,77.78,155.56,68.30,36.66,30.00,8.33,13.31
1,177.54,104.29,173.33,119.22,10.43,6.50,7.50,9.74,4.09,20.00,1.00,4.51,106.53,165.00,146.67,51.78,12.76,11.00,32.50,33.31,115.40,200.00,95.00,51.79,115.30,73.33,153.33,71.35,37.57,33.33,8.33,14.02
1,179.07,102.86,166.67,122.13,10.43,6.50,7.50,9.74,4.10,20.00,1.00,4.51,107.93,160.00,148.33,51.80,12.76,11.00,32.50,33.31,116.90,203.33,100.00,52.69,117.10,75.56,157.78,73.28,39.10,36.67,8.33,14.49
1,178.69,102.86,166.67,121.58,10.45,6.50,7.50,9.74,4.09,20.00,1.00,4.51,107.89,165.00,146.67,52.35,12.76,11.00,32.50,33.31,118.94,210.00,100.00,53.85,114.40,71.11,162.22,64.55,39.22,36.67,8.33,14.84
1,174.38,100.00,163.33,118.03,10.45,6.50,7.50,9.74,4.08,20.00,1.00,4.51,107.69,155.00,150.00,51.03,12.62,11.00,32.50,33.27,123.27,213.33,115.00,56.07,112.59,64.44,160.00,64.81,38.70,33.33,8.33,14.56
1,171.10,98.57,163.33,116.71,10.45,6.50,7.50,9.74,4.08,20.00,1.00,4.51,108.06,155.00,151.67,50.31,13.08,12.00,32.50,33.56,121.98,213.33,115.00,56.27,107.38,60.00,155.56,60.37,37.36,30.00,8.33,14.07
1,173.54,98.57,166.67,119.44,10.45,6.50,7.50,9.74,4.08,20.00,1.00,4.51,107.00,150.00,151.67,50.45,12.76,12.00,32.50,33.06,121.49,216.67,115.00,53.28,109.41,64.44,162.22,55.19,36.83,30.00,8.33,13.91
1,165.67,92.86,156.67,114.22,10.53,6.50,7.50,9.74,4.08,20.00,1.00,4.51,107.63,150.00,148.33,51.42,11.44,10.50,27.50,29.14,118.68,213.33,115.00,52.24,102.82,55.56,157.78,51.37,36.45,26.67,8.33,13.67
1,163.68,90.00,156.67,110.54,11.34,7.50,8.00,9.96,4.08,20.00,1.00,4.51,106.62,150.00,150.00,50.31,9.99,9.50,22.50,24.56,116.61,210.00,115.00,49.35,105.21,62.22,155.56,52.79,36.42,26.67,8.33,13.56
1,162.78,87.14,150.00,112.68,13.11,8.50,10.00,12.04,4.08,20.00,1.00,4.51,108.77,160.00,151.67,52.33,10.07,9.50,22.50,24.29,113.41,206.67,105.00,46.74,105.19,62.22,155.56,52.36,37.58,30.00,8.33,14.04
1,169.01,94.29,163.33,114.71,13.80,9.00,10.00,12.64,4.08,20.00,1.00,4.51,101.93,135.00,146.67,46.78,10.15,9.50,22.50,24.38,112.03,196.67,100.00,45.13,99.47,55.56,151.11,48.09,35.15,23.33,8.33,12.18
1,163.51,90.00,150.00,112.75,12.81,8.00,9.00,12.05,4.08,20.00,1.00,4.51,99.72,125.00,143.33,45.52,9.86,9.00,20.00,24.38,107.86,186.67,95.00,42.06,97.74,53.33,146.67,46.89,35.76,26.67,8.33,12.60
1,165.45,91.43,153.33,110.01,11.73,7.00,7.50,11.36,5.39,30.00,1.50,6.00,97.28,115.00,140.00,44.00,8.70,8.00,17.50,20.48,108.27,186.67,95.00,42.93,99.66,55.56,155.56,45.14,35.54,26.67,8.33,12.36
1,161.34,88.57,146.67,107.93,9.86,6.00,5.50,9.95,5.59,30.00,1.50,6.18,97.59,120.00,136.67,45.84,10.52,9.50,25.00,25.18,107.85,183.33,100.00,43.48,98.53,51.11,155.56,45.00,36.54,26.67,8.33,12.69
1,162.18,88.57,150.00,106.70,8.09,5.00,5.00,7.52,5.60,30.00,1.50,6.18,99.70,130.00,138.33,47.28,10.59,9.50,25.00,25.25,102.35,173.33,95.00,39.79,93.43,46.67,153.33,40.97,37.27,33.33,8.33,13.16
1,156.89,88.57,143.33,101.55,8.71,5.50,5.50,7.72,6.12,33.33,1.50,6.70,96.57,120.00,136.67,43.88,9.94,8.50,25.00,24.19,103.72,176.67,100.00,41.11,95.55,51.11,162.22,41.04,38.16,33.33,8.33,13.85
1,154.55,84.29,140.00,100.66,9.14,6.00,6.00,8.13,7.03,30.00,2.50,9.09,100.03,130.00,140.00,45.87,9.82,8.50,22.50,24.01,99.70,170.00,85.00,38.59,96.35,51.11,164.44,40.69,39.89,36.67,8.33,14.75
1,155.40,85.71,136.67,104.61,9.16,6.00,6.00,8.13,7.07,30.00,2.50,9.20,95.95,120.00,138.33,43.31,9.64,8.50,25.00,22.39,103.01,173.33,90.00,40.12,95.19,46.67,160.00,41.50,39.33,36.67,8.33,14.51
1,157.07,85.71,136.67,104.52,7.12,5.00,5.00,5.86,7.07,30.00,2.50,9.20,94.65,120.00,135.00,42.93,9.01,8.00,22.50,21.02,98.84,163.33,85.00,37.69,93.32,46.67,155.56,41.06,38.82,36.67,8.33,14.27
1,155.05,82.86,136.67,104.14,5.02,3.50,3.50,3.55,5.77,26.67,1.50,8.02,94.48,125.00,133.33,42.24,8.40,7.50,22.50,18.38,97.59,160.00,85.00,37.77,93.31,46.67,155.56,40.72,39.02,40.00,8.33,14.29
1,156.33,84.29,140.00,102.08,4.88,3.50,3.50,3.52,4.95,23.33,1.50,5.83,91.90,120.00,128.33,40.62,7.01,6.00,17.50,14.58,97.26,160.00,85.00,37.13,93.42,46.67,162.22,38.59,39.14,40.00,8.33,14.36
1,157.41,87.14,136.67,102.09,4.88,3.50,3.50,3.52,4.91,23.33,1.50,5.83,90.20,110.00,126.67,39.25,7.95,7.00,22.50,17.51,97.09,160.00,85.00,37.42,96.44,51.11,162.22,41.77,37.73,36.67,0.00,13.88
1,155.99,84.29,136.67,102.29,4.89,3.50,3.50,3.52,4.91,23.33,1.50,5.83,89.35,110.00,128.33,38.35,8.23,7.00,22.50,17.92,99.37,166.67,90.00,38.89,95.65,51.11,164.44,42.28,35.86,30.00,0.00,12.07
1,158.21,85.71,136.67,102.76,4.89,3.50,3.50,3.52,4.91,23.33,1.50,5.83,89.93,110.00,130.00,38.41,9.58,8.00,27.50,21.62,99.32,170.00,85.00,37.87,92.37,48.89,164.44,37.38,36.04,30.00,0.00,12.19
1,152.98,84.29,133.33,98.90,4.88,3.50,3.50,3.52,4.92,23.33,1.50,5.83,88.26,105.00,128.33,37.82,9.68,8.00,27.50,21.67,101.51,173.33,90.00,40.39,96.17,55.56,164.44,41.94,34.68,26.67,0.00,11.83
1,155.83,85.71,130.00,101.86,5.41,4.00,4.00,3.66,4.93,23.33,1.50,5.83,89.65,115.00,125.00,39.65,10.47,9.00,30.00,22.91,100.36,180.00,80.00,38.76,94.69,55.56,164.44,41.04,33.74,26.67,0.00,11.45
1,156.60,84.29,123.33,103.80,7.06,5.00,6.00,5.44,4.93,23.33,1.50,5.83,89.02,115.00,125.00,39.94,10.27,8.50,30.00,22.82,99.62,176.67,75.00,38.62,98.33,60.00,173.33,41.67,33.84,26.67,0.00,11.26
1,155.67,82.86,116.67,102.41,7.69,5.50,6.00,5.96,4.93,23.33,1.50,5.83,87.96,115.00,121.67,40.29,10.39,8.50,32.50,23.19,102.09,180.00,80.00,40.38,96.70,55.56,168.89,40.98,33.90,26.67,0.00,11.01
1,161.77,87.14,123.33,107.51,7.69,5.50,6.00,5.96,4.94,23.33,1.50,5.83,88.80,115.00,121.67,41.39,10.64,9.00,32.50,23.46,99.57,166.67,75.00,39.11,94.42,53.33,166.67,38.98,34.60,26.67,0.00,11.13
1,166.13,92.86,130.00,110.38,7.35,5.00,6.00,5.89,6.82,30.00,2.50,8.93,86.32,105.00,118.33,39.79,11.24,9.50,32.50,24.25,101.94,176.67,80.00,40.19,93.50,51.11,164.44,39.24,34.36,26.67,0.00,11.16
