0,58.13,20.00,0.00,17.52,8.49,6.50,3.00,3.10,3.41,16.67,1.00,4.27,26.19,0.00,45.00,3.91,0.00,0.00,0.00,0.00,15.44,0.00,0.00,1.12,22.49,0.00,4.44,2.31,12.53,0.00,0.00,1.65
0,60.45,21.43,0.00,18.62,8.28,6.50,3.50,2.65,3.41,16.67,1.00,4.27,26.71,0.00,45.00,3.98,0.00,0.00,0.00,0.00,15.31,0.00,0.00,1.10,23.12,0.00,6.67,2.36,12.68,0.00,0.00,1.64
0,63.10,27.14,3.33,19.15,8.51,7.00,4.00,2.75,3.41,16.67,1.00,4.27,26.96,0.00,46.67,4.19,0.00,0.00,0.00,0.00,16.69,3.33,0.00,1.40,23.29,0.00,6.67,2.41,12.70,0.00,0.00,1.61
0,62.79,27.14,3.33,19.28,8.70,7.50,4.00,2.87,3.85,16.67,1.00,4.35,26.88,0.00,46.67,4.20,0.00,0.00,0.00,0.00,16.49,3.33,0.00,1.39,23.30,0.00,6.67,2.36,12.56,0.00,0.00,1.62
0,66.57,31.43,6.67,21.48,8.42,7.00,4.00,2.79,5.75,23.33,1.50,6.05,26.00,0.00,45.00,3.84,0.00,0.00,0.00,0.00,17.14,3.33,0.00,1.44,22.93,0.00,6.67,2.20,12.59,0.00,0.00,1.64
0,69.76,35.71,6.67,24.81,8.69,7.50,4.50,2.82,7.93,30.00,3.00,11.20,27.39,0.00,48.33,4.21,0.00,0.00,0.00,0.00,17.81,3.33,0.00,1.61,23.12,0.00,6.67,2.24,12.59,0.00,0.00,1.64
0,75.41,38.57,16.67,29.40,8.83,8.00,5.00,2.97,8.63,33.33,3.00,12.15,27.92,0.00,51.67,4.19,0.00,0.00,0.00,0.00,19.37,3.33,0.00,1.98,23.36,0.00,6.67,2.28,12.70,0.00,0.00,1.61
0,79.65,40.00,23.33,33.63,9.27,8.50,5.50,3.12,8.65,33.33,3.00,12.15,28.12,0.00,51.67,4.22,0.00,0.00,0.00,0.00,22.15,13.33,0.00,2.96,22.93,0.00,6.67,2.25,12.27,0.00,0.00,1.51
0,84.25,42.86,30.00,37.71,10.39,9.50,6.50,4.07,8.65,33.33,3.00,12.15,30.66,0.00,56.67,5.13,0.00,0.00,0.00,0.00,25.32,20.00,5.00,4.96,23.15,0.00,6.67,2.30,12.08,0.00,0.00,1.46
0,89.23,44.29,33.33,41.63,12.13,10.50,8.00,6.50,8.65,33.33,3.00,12.15,30.24,0.00,55.00,5.10,0.00,0.00,0.00,0.00,28.32,23.33,5.00,6.00,23.04,0.00,8.89,2.23,12.46,0.00,0.00,1.52
0,88.42,44.29,33.33,41.71,12.06,10.00,8.00,6.53,8.68,33.33,3.00,12.16,30.60,0.00,56.67,5.23,0.00,0.00,0.00,0.00,29.14,23.33,5.00,6.50,22.98,0.00,8.89,2.21,12.49,0.00,0.00,1.52
0,90.92,45.71,36.67,42.77,11.97,10.00,8.00,6.49,8.69,33.33,3.00,12.16,30.93,0.00,58.33,5.13,0.00,0.00,0.00,0.00,30.33,23.33,5.00,6.81,23.11,0.00,8.89,2.22,12.47,0.00,0.00,1.52
0,93.40,48.57,36.67,43.47,11.81,9.50,7.50,6.43,8.69,33.33,3.00,12.16,31.21,0.00,58.33,5.29,0.00,0.00,0.00,0.00,30.74,23.33,5.00,6.91,22.77,0.00,8.89,2.25,12.33,0.00,0.00,1.55
0,96.12,52.86,43.33,44.44,11.96,9.50,7.50,6.45,8.67,33.33,3.00,12.15,32.23,0.00,60.00,5.83,0.00,0.00,0.00,0.00,31.13,23.33,5.00,6.93,22.90,0.00,8.89,2.28,12.01,0.00,0.00,1.47
0,97.88,54.29,46.67,45.60,11.85,9.50,7.50,6.43,8.67,33.33,3.00,12.15,32.60,0.00,61.67,5.94,0.00,0.00,0.00,0.00,31.70,23.33,5.00,6.99,22.54,0.00,8.89,2.24,11.94,0.00,0.00,1.44
0,100.97,57.14,50.00,46.72,11.61,9.50,7.50,6.38,8.67,33.33,3.00,12.15,33.42,0.00,63.33,6.33,0.00,0.00,0.00,0.00,32.21,23.33,5.00,7.05,22.84,0.00,8.89,2.25,12.08,0.00,0.00,1.48
0,103.65,55.71,53.33,50.64,11.51,9.50,8.00,6.36,8.67,33.33,3.00,12.15,34.14,0.00,65.00,6.50,0.00,0.00,0.00,0.00,32.58,23.33,5.00,7.15,22.71,0.00,8.89,2.23,12.36,0.00,0.00,1.60
0,104.60,60.00,53.33,51.00,11.24,9.00,8.00,6.28,8.67,33.33,3.00,12.15,34.95,0.00,66.67,6.72,0.00,0.00,0.00,0.00,32.81,23.33,5.00,7.27,23.41,0.00,11.11,2.36,12.53,0.00,0.00,1.70
0,104.91,58.57,53.33,50.98,10.95,8.50,7.50,6.17,7.37,26.67,2.00,10.97,35.52,0.00,63.33,6.92,0.00,0.00,0.00,0.00,33.12,23.33,5.00,7.29,23.54,0.00,13.33,2.39,12.78,0.00,0.00,1.70
0,106.92,61.43,56.67,52.72,9.96,8.00,6.50,5.22,6.02,20.00,2.00,8.11,35.68,0.00,66.67,7.05,0.00,0.00,0.00,0.00,33.71,23.33,5.00,7.34,22.63,0.00,13.33,2.19,13.14,0.00,0.00,1.78
0,107.74,61.43,60.00,53.32,10.01,8.00,6.50,5.08,5.70,16.67,2.00,7.90,35.78,0.00,65.00,7.14,0.00,0.00,0.00,0.00,34.38,23.33,5.00,7.44,23.06,0.00,13.33,2.30,13.05,0.00,0.00,1.68
0,110.85,65.71,63.33,55.76,9.73,7.50,6.50,4.98,5.70,16.67,2.00,7.90,36.12,0.00,65.00,7.11,0.00,0.00,0.00,0.00,35.36,23.33,5.00,7.52,23.60,0.00,13.33,2.36,13.30,0.00,0.00,1.69
0,110.06,65.71,63.33,55.79,9.48,7.00,5.50,4.91,5.70,16.67,2.00,7.90,37.04,0.00,66.67,7.49,0.00,0.00,0.00,0.00,35.42,23.33,5.00,7.50,23.24,0.00,11.11,2.30,13.26,0.00,0.00,1.74
0,108.34,60.00,60.00,54.15,9.15,6.50,5.00,4.74,5.69,16.67,2.00,7.90,36.78,0.00,65.00,7.37,0.00,0.00,0.00,0.00,35.09,20.00,5.00,7.39,23.32,0.00,11.11,2.38,13.27,0.00,0.00,1.76
0,110.95,64.29,63.33,55.99,9.01,6.50,4.50,4.68,5.41,16.67,2.00,7.82,36.71,0.00,61.67,7.33,0.00,0.00,0.00,0.00,34.86,20.00,5.00,7.36,22.96,0.00,11.11,2.37,13.25,0.00,0.00,1.76
0,107.67,61.43,60.00,54.47,9.31,7.00,5.00,4.83,4.64,13.33,2.00,7.32,37.02,0.00,63.33,7.41,0.00,0.00,0.00,0.00,33.79,20.00,5.00,7.25,22.79,0.00,11.11,2.33,12.90,0.00,0.00,1.71
0,108.44,62.86,60.00,56.82,9.37,7.00,5.00,4.85,2.75,10.00,0.50,3.97,35.56,0.00,58.33,6.97,0.00,0.00,0.00,0.00,34.26,20.00,5.00,7.38,22.66,0.00,11.11,2.32,12.95,0.00,0.00,1.68
0,103.19,60.00,50.00,52.25,10.85,7.50,5.50,6.95,2.41,10.00,0.50,2.00,34.96,0.00,55.00,6.88,0.00,0.00,0.00,0.00,33.04,20.00,5.00,6.95,22.77,0.00,11.11,2.32,12.60,0.00,0.00,1.64
0,99.56,61.43,46.67,46.58,11.27,8.00,5.00,7.55,2.69,10.00,0.50,2.19,35.17,0.00,55.00,6.98,0.00,0.00,0.00,0.00,31.49,13.33,5.00,6.13,23.54,0.00,15.56,2.42,13.05,0.00,0.00,1.74
0,97.97,61.43,40.00,44.49,10.49,8.00,4.50,6.81,2.71,10.00,0.50,2.19,32.60,0.00,50.00,6.04,0.00,0.00,0.00,0.00,27.30,3.33,0.00,4.11,23.16,0.00,15.56,2.37,13.35,0.00,0.00,1.79
0,97.42,60.00,43.33,44.89,8.66,6.50,3.00,4.49,2.71,10.00,0.50,2.19,33.48,0.00,55.00,6.12,0.00,0.00,0.00,0.00,25.71,3.33,0.00,3.69,23.26,0.00,11.11,2.42,13.62,0.00,0.00,1.87
0,100.15,64.29,46.67,44.93,8.64,6.00,3.00,4.27,2.67,10.00,0.50,2.19,32.62,0.00,51.67,5.86,0.00,0.00,0.00,0.00,24.48,3.33,0.00,2.91,23.48,0.00,11.11,2.43,13.74,0.00,0.00,1.97
0,101.37,65.71,43.33,45.73,8.95,6.50,4.00,4.42,3.30,13.33,0.50,2.38,33.12,0.00,53.33,5.89,0.00,0.00,0.00,0.00,24.22,3.33,0.00,2.69,23.55,0.00,11.11,2.45,13.93,0.00,0.00,1.98
0,104.55,70.00,50.00,47.22,8.89,6.50,4.00,4.43,5.25,23.33,1.00,4.21,32.89,0.00,56.67,5.73,0.00,0.00,0.00,0.00,23.83,3.33,0.00,2.60,23.78,0.00,11.11,2.43,14.63,0.00,0.00,2.12
0,104.16,68.57,46.67,48.11,9.17,7.00,4.00,4.48,7.44,30.00,2.50,9.39,32.42,0.00,56.67,5.35,0.00,0.00,0.00,0.00,24.08,3.33,0.00,2.72,23.96,0.00,11.11,2.61,14.51,0.00,0.00,2.11
0,101.62,67.14,40.00,46.95,9.51,7.50,5.00,4.70,8.14,33.33,2.50,10.33,32.63,0.00,56.67,5.45,0.00,0.00,0.00,0.00,24.07,3.33,0.00,2.77,24.23,0.00,11.11,2.69,14.61,0.00,0.00,2.11
0,100.94,68.57,40.00,46.22,10.12,8.00,5.50,4.93,8.16,33.33,2.50,10.34,32.85,0.00,56.67,5.39,0.00,0.00,0.00,0.00,23.87,3.33,0.00,2.75,24.50,0.00,11.11,2.80,14.40,0.00,0.00,2.04
0,96.89,64.29,33.33,42.25,10.46,8.50,6.00,5.28,8.15,33.33,2.50,10.34,32.88,0.00,58.33,5.25,0.00,0.00,0.00,0.00,24.35,3.33,0.00,2.87,24.66,0.00,11.11,2.86,14.35,0.00,0.00,2.00
0,96.35,61.43,33.33,40.96,12.33,9.50,7.50,7.65,8.15,33.33,2.50,10.34,31.57,0.00,55.00,4.84,0.00,0.00,0.00,0.00,23.42,3.33,0.00,2.69,24.11,0.00,8.89,2.79,14.26,0.00,0.00,2.01
0,95.17,60.00,33.33,39.60,12.65,10.50,7.50,7.77,8.17,33.33,2.50,10.34,30.52,0.00,51.67,4.45,0.00,0.00,0.00,0.00,23.56,3.33,0.00,2.67,24.22,0.00,8.89,2.87,13.63,0.00,0.00,1.82
0,92.09,58.57,30.00,37.07,12.63,10.00,7.50,7.77,8.16,33.33,2.50,10.34,30.77,0.00,55.00,4.52,0.00,0.00,0.00,0.00,24.18,3.33,0.00,2.79,25.21,0.00,8.89,3.12,13.19,0.00,0.00,1.75
0,92.44,61.43,26.67,37.54,12.51,9.50,7.50,7.73,8.16,33.33,2.50,10.34,30.50,0.00,53.33,4.44,0.00,0.00,0.00,0.00,24.08,3.33,0.00,2.81,24.78,0.00,6.67,3.00,13.68,0.00,0.00,1.82
0,89.11,58.57,23.33,35.76,12.71,9.50,7.50,7.76,8.16,33.33,2.50,10.34,30.20,0.00,51.67,4.42,0.00,0.00,0.00,0.00,22.81,3.33,0.00,2.64,24.69,0.00,6.67,3.02,13.20,0.00,0.00,1.77
0,92.51,64.29,30.00,36.55,12.88,9.50,8.00,7.84,8.16,33.33,2.50,10.34,28.80,0.00,46.67,4.02,0.00,0.00,0.00,0.00,23.39,3.33,0.00,2.75,23.99,0.00,6.67,3.00,13.35,0.00,0.00,1.88
0,94.83,65.71,36.67,38.40,12.86,9.50,8.00,7.84,8.16,33.33,2.50,10.34,28.35,0.00,46.67,3.84,0.00,0.00,0.00,0.00,23.60,3.33,0.00,2.84,24.29,0.00,6.67,2.97,13.15,0.00,0.00,1.82
0,94.70,65.71,40.00,38.02,12.89,9.00,8.00,7.86,8.16,33.33,2.50,10.34,28.71,0.00,48.33,3.98,0.00,0.00,0.00,0.00,23.17,3.33,0.00,2.75,23.52,0.00,6.67,2.88,13.10,0.00,0.00,1.80
0,96.24,67.14,43.33,37.95,12.79,9.00,8.00,7.74,8.17,33.33,2.50,10.34,28.93,0.00,46.67,4.15,0.00,0.00,0.00,0.00,23.66,3.33,0.00,2.83,23.63,0.00,6.67,2.94,13.09,0.00,0.00,1.82
0,94.87,67.14,43.33,35.29,12.82,9.50,8.00,7.75,7.86,30.00,2.50,10.26,29.69,0.00,50.00,4.42,0.00,0.00,0.00,0.00,23.18,3.33,0.00,2.78,23.70,0.00,6.67,2.98,12.84,0.00,0.00,1.80
0,97.76,68.57,50.00,36.87,11.46,9.00,8.00,5.91,6.60,26.67,2.00,8.70,30.24,0.00,50.00,4.78,0.00,0.00,0.00,0.00,23.13,3.33,0.00,2.65,23.22,0.00,6.67,2.93,13.31,0.00,0.00,1.89
0,98.38,67.14,50.00,37.78,11.03,8.50,8.00,5.19,5.98,23.33,2.00,8.17,30.30,0.00,48.33,4.87,0.00,0.00,0.00,0.00,23.03,3.33,0.00,2.65,23.34,0.00,2.22,2.96,13.07,0.00,0.00,1.80
0,96.90,67.14,50.00,36.65,10.94,8.00,8.00,5.05,5.94,23.33,2.00,8.16,31.41,0.00,55.00,5.02,0.00,0.00,0.00,0.00,23.10,3.33,0.00,2.64,23.45,0.00,2.22,2.98,13.23,0.00,0.00,1.87
0,94.24,68.57,43.33,34.79,11.01,8.50,8.00,5.05,5.94,23.33,2.00,8.16,31.39,0.00,53.33,5.00,0.00,0.00,0.00,0.00,22.43,3.33,0.00,2.63,22.67,0.00,2.22,2.86,12.97,0.00,0.00,1.83
0,91.19,65.71,40.00,31.02,10.93,8.50,8.00,5.01,5.94,23.33,2.00,8.16,30.99,0.00,51.67,5.04,0.00,0.00,0.00,0.00,22.52,0.00,0.00,2.59,23.38,0.00,4.44,3.16,12.80,0.00,0.00,1.65
0,91.54,64.29,43.33,31.61,10.70,8.50,7.00,4.90,5.49,20.00,2.00,7.98,31.21,0.00,50.00,5.28,0.00,0.00,0.00,0.00,22.77,0.00,0.00,2.60,23.28,0.00,4.44,3.15,12.65,0.00,0.00,1.60
0,91.83,62.86,40.00,33.87,10.96,9.00,7.50,5.00,6.14,16.67,3.00,9.97,30.45,0.00,45.00,5.22,0.00,0.00,0.00,0.00,23.13,0.00,0.00,2.72,22.94,0.00,4.44,3.08,12.29,0.00,0.00,1.55
0,88.46,60.00,40.00,31.44,11.10,9.50,8.00,5.06,4.45,13.33,1.50,7.24,30.61,0.00,46.67,5.19,0.00,0.00,0.00,0.00,21.94,0.00,0.00,2.48,22.49,0.00,4.44,2.89,12.17,0.00,0.00,1.50
0,88.88,57.14,43.33,32.10,12.63,10.00,8.50,7.17,4.62,13.33,2.00,6.74,30.54,0.00,50.00,5.04,0.00,0.00,0.00,0.00,21.47,0.00,0.00,2.37,22.67,0.00,4.44,2.91,12.30,0.00,0.00,1.51
0,88.88,54.29,43.33,32.63,12.63,9.50,8.00,7.37,4.89,13.33,2.00,7.01,29.86,0.00,48.33,4.90,0.00,0.00,0.00,0.00,21.37,0.00,0.00,2.34,23.17,0.00,4.44,2.96,12.04,0.00,0.00,1.49
0,91.89,58.57,46.67,34.64,12.54,10.00,7.50,7.09,5.27,16.67,2.00,7.13,29.37,0.00,46.67,4.83,0.00,0.00,0.00,0.00,20.74,0.00,0.00,2.19,22.77,0.00,4.44,2.83,11.95,0.00,0.00,1.49
0,91.38,60.00,46.67,35.11,10.90,9.00,6.00,4.96,5.27,16.67,2.00,7.13,29.19,0.00,48.33,4.92,0.00,0.00,0.00,0.00,20.91,0.00,0.00,2.13,22.61,0.00,4.44,2.78,12.11,0.00,0.00,1.45
0,90.43,58.57,46.67,34.97,11.13,9.00,6.50,4.94,5.26,16.67,2.00,7.13,30.04,0.00,53.33,5.27,0.00,0.00,0.00,0.00,21.01,0.00,0.00,2.14,22.11,0.00,2.22,2.62,12.51,0.00,0.00,1.51
0,90.15,58.57,46.67,35.35,11.21,9.00,6.50,5.01,5.48,16.67,2.00,7.14,29.59,0.00,50.00,5.15,0.00,0.00,0.00,0.00,20.90,0.00,0.00,2.16,21.63,0.00,2.22,2.44,12.62,0.00,0.00,1.55
0,92.57,58.57,50.00,37.30,10.95,9.00,6.50,4.95,7.29,26.67,2.50,8.69,29.45,0.00,50.00,5.06,0.00,0.00,0.00,0.00,20.27,0.00,0.00,2.04,21.93,0.00,2.22,2.43,12.35,0.00,0.00,1.58
0,96.23,62.86,56.67,39.77,11.25,10.00,7.50,5.06,9.43,33.33,4.00,13.53,30.48,0.00,55.00,5.17,0.00,0.00,0.00,0.00,20.24,0.00,0.00,2.02,21.57,0.00,2.22,2.37,12.57,0.00,0.00,1.57
0,93.01,58.57,50.00,37.85,11.15,10.00,7.50,5.08,10.14,36.67,4.00,14.49,31.33,0.00,56.67,5.50,0.00,0.00,0.00,0.00,20.16,0.00,0.00,2.02,22.04,0.00,4.44,2.49,12.56,0.00,0.00,1.56
0,89.54,55.71,43.33,37.13,11.67,10.50,8.50,5.28,10.17,36.67,4.00,14.49,31.48,0.00,58.33,5.72,0.00,0.00,0.00,0.00,19.69,0.00,0.00,1.88,21.78,0.00,4.44,2.42,12.88,0.00,0.00,1.53
0,90.00,54.29,40.00,38.21,12.21,11.50,9.50,5.75,10.16,36.67,4.00,14.49,31.87,0.00,58.33,5.98,0.00,0.00,0.00,0.00,19.45,0.00,0.00,1.82,21.68,0.00,4.44,2.45,12.90,0.00,0.00,1.57
0,89.57,52.86,36.67,38.21,13.83,12.50,10.50,7.91,10.18,36.67,4.00,14.50,31.42,0.00,56.67,5.77,0.00,0.00,0.00,0.00,19.47,0.00,0.00,1.80,21.60,0.00,4.44,2.39,13.05,0.00,0.00,1.61
0,89.53,52.86,36.67,37.29,13.59,11.50,10.50,7.85,10.18,36.67,4.00,14.50,30.62,0.00,55.00,5.50,0.00,0.00,0.00,0.00,19.16,0.00,0.00,1.77,21.63,0.00,4.44,2.39,13.18,0.00,0.00,1.67
0,85.03,50.00,30.00,34.69,13.17,11.00,9.50,7.67,10.19,36.67,4.00,14.50,30.72,0.00,55.00,5.56,0.00,0.00,0.00,0.00,19.28,0.00,0.00,1.78,21.96,0.00,4.44,2.43,14.04,0.00,0.00,2.02
0,81.34,47.14,26.67,31.98,12.76,10.50,9.00,7.50,10.18,36.67,4.00,14.50,30.51,0.00,56.67,5.41,0.00,0.00,0.00,0.00,18.75,0.00,0.00,1.78,21.50,0.00,4.44,2.49,13.66,0.00,0.00,1.98
0,84.15,51.43,33.33,32.61,12.71,10.50,9.00,7.48,10.18,36.67,4.00,14.50,29.30,0.00,50.00,5.21,0.00,0.00,0.00,0.00,18.88,0.00,0.00,1.80,21.92,0.00,6.67,2.60,13.49,0.00,0.00,1.96
0,84.49,50.00,36.67,33.19,12.64,10.00,9.00,7.45,10.18,36.67,4.00,14.50,30.08,0.00,51.67,5.64,0.00,0.00,0.00,0.00,18.66,0.00,0.00,1.79,21.96,0.00,6.67,2.63,13.22,0.00,0.00,1.93
0,84.10,50.00,40.00,33.39,12.17,9.50,8.50,7.32,10.18,36.67,4.00,14.50,29.57,0.00,51.67,5.53,0.00,0.00,0.00,0.00,17.81,0.00,0.00,1.55,20.81,0.00,4.44,2.33,13.15,0.00,0.00,1.98
0,87.72,54.29,40.00,36.65,11.93,9.00,8.50,7.26,10.18,36.67,4.00,14.50,29.73,0.00,53.33,5.51,0.00,0.00,0.00,0.00,17.88,0.00,0.00,1.59,21.15,0.00,4.44,2.38,13.33,0.00,0.00,2.05
0,83.89,52.86,36.67,32.15,11.77,8.50,8.00,7.16,9.79,36.67,3.50,14.50,29.86,0.00,53.33,5.52,0.00,0.00,0.00,0.00,17.36,0.00,0.00,1.49,21.35,0.00,4.44,2.43,13.54,0.00,0.00,2.15
0,88.09,55.71,43.33,34.99,11.45,8.00,7.50,7.04,8.06,30.00,3.00,11.03,30.17,0.00,51.67,5.86,0.00,0.00,0.00,0.00,17.20,0.00,0.00,1.51,21.56,0.00,4.44,2.56,13.28,0.00,0.00,2.15
0,87.58,57.14,40.00,34.13,9.87,7.00,6.50,5.05,6.53,26.67,2.00,8.38,30.49,0.00,51.67,6.07,0.00,0.00,0.00,0.00,17.27,0.00,0.00,1.51,21.08,0.00,4.44,2.45,13.54,0.00,0.00,2.16
0,90.10,60.00,43.33,35.51,9.43,6.50,6.00,4.55,5.80,23.33,2.00,7.50,30.90,0.00,50.00,6.35,0.00,0.00,0.00,0.00,17.43,0.00,0.00,1.50,21.41,0.00,4.44,2.46,13.66,0.00,0.00,2.22
0,91.45,62.86,46.67,36.28,9.01,6.00,5.50,4.35,5.44,20.00,2.00,7.39,31.34,0.00,56.67,6.38,0.00,0.00,0.00,0.00,17.77,0.00,0.00,1.62,20.95,0.00,4.44,2.40,13.58,0.00,0.00,2.21
0,89.60,60.00,43.33,35.53,8.67,5.00,5.50,4.22,5.40,20.00,2.00,7.38,31.17,0.00,55.00,6.30,0.00,0.00,0.00,0.00,17.70,0.00,0.00,1.63,21.09,0.00,4.44,2.43,13.35,0.00,0.00,2.21
0,89.54,60.00,43.33,35.46,8.28,4.50,5.00,3.96,5.40,20.00,2.00,7.38,30.69,0.00,53.33,5.95,0.00,0.00,0.00,0.00,17.48,0.00,0.00,1.60,20.67,0.00,4.44,2.39,13.15,0.00,0.00,2.18
0,91.48,62.86,50.00,36.39,7.99,4.00,5.00,3.83,5.33,20.00,2.00,7.37,30.49,0.00,51.67,5.97,0.00,0.00,0.00,0.00,17.53,0.00,0.00,1.65,20.55,0.00,4.44,2.34,13.55,0.00,0.00,2.31
0,92.03,62.86,50.00,36.54,8.18,4.00,5.00,3.86,4.57,13.33,2.00,6.86,30.83,0.00,53.33,5.88,0.00,0.00,0.00,0.00,17.36,0.00,0.00,1.61,20.69,0.00,6.67,2.40,13.60,0.00,0.00,2.32
0,88.43,60.00,40.00,34.02,8.20,4.00,4.50,3.85,4.23,16.67,1.50,6.86,30.24,0.00,50.00,5.83,0.00,0.00,0.00,0.00,17.87,0.00,0.00,1.66,20.79,0.00,6.67,2.45,13.54,0.00,0.00,2.29
0,88.68,61.43,40.00,33.11,9.78,4.50,5.00,6.00,3.91,16.67,1.50,5.22,29.67,0.00,51.67,5.54,0.00,0.00,0.00,0.00,17.29,0.00,0.00,1.55,20.73,0.00,4.44,2.36,13.52,0.00,0.00,2.30
0,90.53,64.29,43.33,33.84,9.83,4.00,4.50,6.20,4.28,20.00,1.50,5.48,29.34,0.00,51.67,5.51,0.00,0.00,0.00,0.00,17.41,0.00,0.00,1.64,21.32,0.00,4.44,2.41,13.48,0.00,0.00,2.29
0,84.87,60.00,40.00,30.19,9.35,4.00,3.50,5.72,4.30,20.00,1.50,5.48,28.97,0.00,50.00,5.11,0.00,0.00,0.00,0.00,17.96,0.00,0.00,1.72,20.84,0.00,4.44,2.29,13.33,0.00,0.00,2.28
0,85.91,60.00,40.00,30.82,7.88,3.00,2.50,3.78,4.29,20.00,1.50,5.48,28.68,0.00,50.00,4.92,0.00,0.00,0.00,0.00,17.83,0.00,0.00,1.68,20.60,0.00,4.44,2.27,13.31,0.00,0.00,2.27
0,89.57,62.86,43.33,33.13,7.88,3.50,2.50,3.63,4.27,20.00,1.50,5.48,29.72,0.00,53.33,5.21,0.00,0.00,0.00,0.00,18.38,0.00,0.00,1.69,21.60,0.00,6.67,2.42,13.69,0.00,0.00,2.31
0,89.35,62.86,46.67,33.56,8.16,4.00,3.00,3.74,4.59,20.00,1.50,5.52,29.04,0.00,50.00,5.05,0.00,0.00,0.00,0.00,18.22,0.00,0.00,1.65,21.39,0.00,6.67,2.38,12.61,0.00,0.00,1.93
0,92.32,65.71,50.00,34.75,8.23,4.00,3.00,3.76,6.43,26.67,2.00,7.15,29.30,0.00,48.33,5.14,0.00,0.00,0.00,0.00,17.98,0.00,0.00,1.57,20.84,0.00,6.67,2.20,12.50,0.00,0.00,1.89
0,92.62,64.29,46.67,34.59,8.63,4.50,3.50,3.84,8.62,33.33,3.50,12.29,30.34,0.00,51.67,5.31,0.00,0.00,0.00,0.00,18.04,0.00,0.00,1.56,20.27,0.00,4.44,2.07,13.08,0.00,0.00,2.01
0,88.50,58.57,40.00,32.58,8.66,4.50,3.50,3.93,9.31,36.67,3.50,13.23,29.94,0.00,50.00,5.09,0.00,0.00,0.00,0.00,18.04,0.00,0.00,1.52,21.14,0.00,8.89,2.18,13.29,0.00,0.00,2.05
0,88.93,58.57,36.67,33.06,9.14,5.00,4.00,4.06,9.33,36.67,3.50,13.24,29.95,0.00,50.00,5.01,0.00,0.00,0.00,0.00,18.01,0.00,0.00,1.50,20.86,0.00,8.89,2.15,13.11,0.00,0.00,2.00
0,86.07,57.14,33.33,30.31,9.87,6.00,5.00,4.51,9.33,36.67,3.50,13.24,29.68,0.00,51.67,4.99,0.00,0.00,0.00,0.00,17.77,0.00,0.00,1.45,20.15,0.00,8.89,2.04,13.04,0.00,0.00,1.92
0,86.05,57.14,33.33,30.00,11.38,7.00,6.50,6.34,9.31,36.67,3.50,13.24,29.76,0.00,53.33,4.96,0.00,0.00,0.00,0.00,17.78,0.00,0.00,1.44,20.14,0.00,8.89,2.01,12.87,0.00,0.00,1.85
0,84.16,55.71,30.00,28.36,13.16,8.00,8.00,8.77,9.31,36.67,3.50,13.24,29.24,0.00,56.67,4.68,0.00,0.00,0.00,0.00,17.87,0.00,0.00,1.40,19.88,0.00,8.89,1.89,13.49,0.00,0.00,2.01
0,83.15,52.86,33.33,28.54,13.00,8.00,8.00,8.73,9.30,36.67,3.50,13.24,28.45,0.00,51.67,4.46,0.00,0.00,0.00,0.00,18.23,0.00,0.00,1.41,20.30,0.00,8.89,1.97,13.25,0.00,0.00,2.00
0,84.78,54.29,40.00,30.04,12.95,8.00,8.00,8.71,9.30,36.67,3.50,13.24,28.09,0.00,51.67,4.25,0.00,0.00,0.00,0.00,18.72,0.00,0.00,1.43,20.64,0.00,8.89,1.99,13.44,0.00,0.00,2.03
0,78.73,48.57,33.33,26.56,13.13,8.00,8.00,8.74,9.32,36.67,3.50,13.24,27.61,0.00,48.33,4.10,0.00,0.00,0.00,0.00,18.24,0.00,0.00,1.31,20.53,0.00,8.89,1.96,13.53,0.00,0.00,2.01
0,80.54,50.00,33.33,25.92,13.29,8.00,8.00,8.79,9.32,36.67,3.50,13.24,28.07,0.00,50.00,4.18,0.00,0.00,0.00,0.00,18.00,0.00,0.00,1.29,20.89,0.00,8.89,1.99,13.39,0.00,0.00,1.94
0,81.36,51.43,36.67,26.82,13.14,8.00,8.00,8.76,9.33,36.67,3.50,13.24,27.63,0.00,48.33,4.14,0.00,0.00,0.00,0.00,18.84,0.00,0.00,1.47,22.01,0.00,8.89,2.14,13.69,0.00,0.00,1.99
0,79.67,48.57,30.00,26.13,12.97,8.00,8.00,8.73,9.33,36.67,3.50,13.24,27.74,0.00,45.00,4.29,0.00,0.00,0.00,0.00,18.50,0.00,0.00,1.40,21.75,0.00,8.89,2.13,13.31,0.00,0.00,1.88
0,79.42,47.14,30.00,25.65,12.97,8.00,8.00,8.72,9.32,36.67,3.50,13.24,27.40,0.00,43.33,4.24,0.00,0.00,0.00,0.00,18.63,0.00,0.00,1.38,21.02,0.00,6.67,2.02,13.53,0.00,0.00,1.90
0,79.11,47.14,30.00,25.80,12.69,7.50,7.50,8.62,8.02,30.00,2.50,12.06,27.07,0.00,41.67,4.18,0.00,0.00,0.00,0.00,18.27,0.00,0.00,1.34,20.76,0.00,6.67,2.02,13.42,0.00,0.00,1.94
0,77.92,45.71,30.00,25.62,11.01,6.50,6.50,6.60,6.29,23.33,2.00,8.39,27.51,0.00,41.67,4.22,0.00,0.00,0.00,0.00,18.03,0.00,0.00,1.34,20.45,0.00,6.67,1.96,13.83,0.00,0.00,2.00
0,80.83,48.57,30.00,27.21,10.76,6.50,6.50,6.18,5.59,16.67,2.00,7.78,27.62,0.00,41.67,4.43,0.00,0.00,0.00,0.00,17.60,0.00,0.00,1.27,20.30,0.00,6.67,1.96,13.40,0.00,0.00,1.92
0,81.56,48.57,26.67,27.55,10.61,6.50,6.50,6.12,5.53,16.67,2.00,7.76,27.58,0.00,41.67,4.52,0.00,0.00,0.00,0.00,17.13,0.00,0.00,1.20,21.13,0.00,6.67,2.19,13.43,0.00,0.00,1.87
0,79.55,47.14,26.67,26.35,10.26,5.50,6.00,6.01,5.55,16.67,2.00,7.76,27.96,0.00,43.33,4.58,0.00,0.00,0.00,0.00,16.61,0.00,0.00,1.13,21.64,0.00,6.67,2.25,13.59,0.00,0.00,1.86
0,79.25,44.29,30.00,26.71,10.17,5.00,6.00,5.89,5.56,16.67,2.00,7.76,27.22,0.00,43.33,4.32,0.00,0.00,0.00,0.00,16.27,0.00,0.00,1.10,21.26,0.00,4.44,2.21,13.67,0.00,0.00,1.86
0,77.08,41.43,26.67,25.76,9.98,4.50,5.50,5.82,5.37,16.67,2.00,7.73,27.03,0.00,43.33,4.26,0.00,0.00,0.00,0.00,16.37,0.00,0.00,1.12,21.80,0.00,4.44,2.23,13.73,0.00,0.00,1.92
0,76.45,40.00,23.33,25.37,10.01,4.50,5.50,5.82,4.66,13.33,2.00,7.30,26.33,0.00,43.33,4.09,0.00,0.00,0.00,0.00,16.39,0.00,0.00,1.13,21.66,0.00,4.44,2.23,14.48,0.00,0.00,2.03
0,79.14,45.71,26.67,26.36,10.15,5.00,6.00,5.88,4.19,16.67,1.50,6.86,25.85,0.00,45.00,3.94,0.00,0.00,0.00,0.00,16.11,0.00,0.00,1.11,21.90,0.00,4.44,2.30,14.10,0.00,0.00,1.95
0,78.47,45.71,26.67,26.47,11.37,5.50,6.50,7.49,4.48,16.67,2.00,6.94,26.55,0.00,51.67,3.99,0.00,0.00,0.00,0.00,16.01,0.00,0.00,1.08,21.40,0.00,0.00,2.19,13.77,0.00,0.00,1.91
0,78.99,47.14,26.67,26.83,11.68,6.50,6.50,7.87,4.87,20.00,2.00,7.32,27.67,0.00,53.33,4.11,0.00,0.00,0.00,0.00,15.54,0.00,0.00,1.06,21.47,0.00,0.00,2.20,13.68,0.00,0.00,1.90
0,78.83,47.14,26.67,26.53,11.22,6.00,5.50,7.50,5.62,23.33,2.00,7.78,27.19,0.00,50.00,4.04,0.00,0.00,0.00,0.00,15.45,0.00,0.00,1.04,21.37,0.00,0.00,2.23,13.82,0.00,0.00,1.97
0,76.10,44.29,26.67,25.31,9.56,4.50,4.00,5.75,5.63,23.33,2.00,7.78,26.81,0.00,50.00,3.92,0.00,0.00,0.00,0.00,14.90,0.00,0.00,0.97,21.65,0.00,2.22,2.29,13.57,0.00,0.00,1.95
0,74.82,42.86,26.67,24.57,7.84,3.50,2.50,3.34,5.63,23.33,2.00,7.78,26.42,0.00,45.00,3.90,0.00,0.00,0.00,0.00,14.59,0.00,0.00,0.94,21.87,0.00,2.22,2.32,13.53,0.00,0.00,1.94
0,74.42,42.86,23.33,24.56,8.04,4.00,3.00,3.29,5.71,23.33,2.00,7.78,26.93,0.00,48.33,3.87,0.00,0.00,0.00,0.00,14.40,0.00,0.00,0.92,21.69,0.00,2.22,2.32,13.23,0.00,0.00,1.73
0,74.48,42.86,16.67,24.42,7.95,4.00,3.00,3.29,7.10,26.67,2.50,8.83,26.68,0.00,46.67,3.80,0.00,0.00,0.00,0.00,14.02,0.00,0.00,0.91,21.80,0.00,2.22,2.37,13.31,0.00,0.00,1.76
0,77.36,47.14,20.00,25.97,8.18,4.50,3.00,3.32,9.19,33.33,4.00,13.41,26.64,0.00,45.00,3.77,0.00,0.00,0.00,0.00,13.56,0.00,0.00,0.88,21.27,0.00,2.22,2.35,13.12,0.00,0.00,1.78
0,75.69,45.71,20.00,25.57,8.20,5.00,3.50,3.39,9.87,36.67,4.00,14.35,25.86,0.00,41.67,3.64,0.00,0.00,0.00,0.00,13.42,0.00,0.00,0.86,21.01,0.00,2.22,2.37,13.11,0.00,0.00,1.78
0,76.45,45.71,20.00,26.15,8.67,5.50,4.00,3.54,9.90,36.67,4.00,14.35,26.80,0.00,45.00,3.91,0.00,0.00,0.00,0.00,13.42,0.00,0.00,0.83,20.63,0.00,2.22,2.35,12.69,0.00,0.00,1.71
0,76.74,44.29,20.00,26.04,9.03,6.00,4.50,3.73,9.90,36.67,4.00,14.35,26.39,0.00,45.00,3.85,0.00,0.00,0.00,0.00,13.01,0.00,0.00,0.77,20.31,0.00,2.22,2.33,12.79,0.00,0.00,1.68
0,77.62,44.29,20.00,26.19,10.03,7.00,5.50,4.56,9.90,36.67,4.00,14.35,25.91,0.00,45.00,3.71,0.00,0.00,0.00,0.00,12.93,0.00,0.00,0.77,20.88,0.00,2.22,2.44,13.00,0.00,0.00,1.68
0,77.18,44.29,20.00,25.32,11.83,8.50,7.00,6.97,9.90,36.67,4.00,14.35,26.72,0.00,46.67,3.89,0.00,0.00,0.00,0.00,12.92,0.00,0.00,0.80,21.19,0.00,4.44,2.52,12.75,0.00,0.00,1.58
0,76.56,41.43,20.00,24.91,11.84,8.50,7.00,6.97,9.89,36.67,4.00,14.35,26.47,0.00,48.33,3.85,0.00,0.00,0.00,0.00,12.76,0.00,0.00,0.79,21.34,0.00,4.44,2.57,12.30,0.00,0.00,1.48
0,75.87,40.00,20.00,23.99,11.81,8.50,7.00,6.96,9.89,36.67,4.00,14.35,27.15,0.00,46.67,4.15,0.00,0.00,0.00,0.00,13.16,0.00,0.00,0.82,21.05,0.00,4.44,2.64,12.68,0.00,0.00,1.54
0,73.75,38.57,20.00,22.74,11.84,8.50,7.00,6.96,9.88,36.67,4.00,14.35,27.42,0.00,46.67,4.25,0.00,0.00,0.00,0.00,13.17,0.00,0.00,0.81,20.89,0.00,4.44,2.60,12.33,0.00,0.00,1.48
0,74.79,40.00,20.00,23.43,12.12,9.00,7.50,7.09,9.88,36.67,4.00,14.35,27.70,0.00,48.33,4.35,0.00,0.00,0.00,0.00,12.99,0.00,0.00,0.80,21.04,0.00,4.44,2.54,12.10,0.00,0.00,1.45
0,72.65,38.57,16.67,22.55,11.96,9.00,7.50,7.06,9.86,36.67,4.00,14.35,27.63,0.00,46.67,4.32,0.00,0.00,0.00,0.00,12.96,0.00,0.00,0.78,20.08,0.00,4.44,2.35,12.14,0.00,0.00,1.47
0,72.87,38.57,16.67,22.87,12.01,9.50,8.00,7.09,9.86,36.67,4.00,14.35,28.00,0.00,48.33,4.36,0.00,0.00,0.00,0.00,13.34,0.00,0.00,0.85,19.88,0.00,4.44,2.32,11.82,0.00,0.00,1.34
0,74.00,41.43,16.67,24.63,12.07,10.00,8.00,7.13,9.86,36.67,4.00,14.35,27.67,0.00,48.33,4.27,0.00,0.00,0.00,0.00,13.27,0.00,0.00,0.81,19.90,0.00,4.44,2.40,11.03,0.00,0.00,1.20
0,72.37,37.14,13.33,23.49,11.94,9.50,7.50,7.08,8.56,30.00,3.00,13.17,27.16,0.00,43.33,4.31,0.00,0.00,0.00,0.00,13.43,0.00,0.00,0.84,20.11,0.00,4.44,2.47,10.65,0.00,0.00,1.14
0,72.97,38.57,20.00,23.88,10.56,8.50,6.50,5.58,6.37,23.33,2.00,8.11,27.09,0.00,38.33,4.41,0.00,0.00,0.00,0.00,13.87,0.00,0.00,0.87,20.99,0.00,4.44,2.56,10.50,0.00,0.00,1.10
0,76.43,40.00,23.33,25.70,10.31,8.00,6.50,5.11,5.50,16.67,2.00,7.05,26.59,0.00,38.33,4.38,0.00,0.00,0.00,0.00,14.11,0.00,0.00,0.88,21.05,0.00,4.44,2.58,10.74,0.00,0.00,1.17
0,75.56,37.14,23.33,25.91,10.14,7.50,6.50,5.01,4.79,13.33,2.00,6.61,25.97,0.00,35.00,4.24,0.00,0.00,0.00,0.00,14.17,0.00,0.00,0.89,21.34,0.00,4.44,2.54,10.62,0.00,0.00,1.14
0,80.19,38.57,30.00,29.61,10.22,7.50,6.50,5.02,4.72,13.33,2.00,6.57,26.08,0.00,31.67,4.27,0.00,0.00,0.00,0.00,14.83,0.00,0.00,0.92,21.85,0.00,4.44,2.57,10.62,0.00,0.00,1.04
0,88.85,45.71,40.00,34.17,10.28,8.00,6.50,5.06,4.71,13.33,2.00,6.57,26.69,0.00,33.33,4.37,0.00,0.00,0.00,0.00,15.30,0.00,0.00,0.98,21.84,0.00,2.22,2.63,11.41,0.00,0.00,1.23
0,88.21,44.29,43.33,35.02,10.32,8.00,7.00,5.08,4.71,13.33,2.00,6.57,26.57,0.00,30.00,4.56,0.00,0.00,0.00,0.00,15.03,0.00,0.00,0.96,21.84,0.00,2.22,2.58,11.19,0.00,0.00,1.24
0,85.84,44.29,40.00,33.54,10.47,8.00,7.00,5.13,4.41,13.33,2.00,6.49,27.12,0.00,35.00,4.67,0.00,0.00,0.00,0.00,14.91,0.00,0.00,0.93,21.54,0.00,2.22,2.53,11.11,0.00,0.00,1.18
0,83.25,40.00,36.67,33.33,10.76,8.50,8.00,5.28,4.13,16.67,1.50,6.82,26.49,0.00,35.00,4.56,0.00,0.00,0.00,0.00,15.05,0.00,0.00,0.97,22.21,0.00,2.22,2.55,10.69,0.00,0.00,1.08
0,83.61,38.57,36.67,33.01,12.39,9.50,9.00,7.49,4.40,16.67,2.00,6.83,27.15,0.00,40.00,4.64,0.00,0.00,0.00,0.00,15.09,0.00,0.00,0.98,21.84,0.00,2.22,2.47,10.54,0.00,0.00,1.08
0,82.76,37.14,33.33,32.10,12.54,9.50,8.50,7.65,4.91,20.00,2.00,7.33,26.20,0.00,36.67,4.36,0.00,0.00,0.00,0.00,15.65,0.00,0.00,1.07,22.74,0.00,4.44,2.65,10.56,0.00,0.00,1.12
0,85.12,41.43,36.67,33.63,12.62,9.50,8.50,7.70,4.95,20.00,2.00,7.34,26.97,0.00,40.00,4.63,0.00,0.00,0.00,0.00,15.28,0.00,0.00,0.94,23.02,0.00,4.44,2.76,10.38,0.00,0.00,1.11
0,85.38,44.29,36.67,33.68,12.06,9.00,8.50,7.12,4.95,20.00,2.00,7.34,27.38,0.00,40.00,4.77,0.00,0.00,0.00,0.00,15.39,0.00,0.00,0.95,23.23,0.00,4.44,2.75,10.47,0.00,0.00,1.14
0,83.92,42.86,36.67,33.34,10.45,8.50,7.00,4.88,4.95,20.00,2.00,7.34,27.20,0.00,40.00,4.69,0.00,0.00,0.00,0.00,15.65,0.00,0.00,0.97,23.13,0.00,2.22,2.61,10.46,0.00,0.00,1.18
0,86.09,44.29,40.00,34.42,10.79,8.50,8.00,4.93,5.54,23.33,2.00,7.50,27.37,0.00,38.33,4.78,0.00,0.00,0.00,0.00,15.97,0.00,0.00,1.01,23.50,0.00,2.22,2.60,10.90,0.00,0.00,1.35
0,85.46,45.71,40.00,34.24,10.51,8.00,7.50,4.88,7.44,33.33,2.50,9.21,26.60,0.00,36.67,4.43,0.00,0.00,0.00,0.00,15.52,0.00,0.00,0.97,23.65,0.00,2.22,2.60,10.91,0.00,0.00,1.38
0,85.26,44.29,40.00,33.81,10.97,8.50,8.00,4.95,9.59,40.00,4.00,14.14,27.12,0.00,40.00,4.22,0.00,0.00,0.00,0.00,15.71,0.00,0.00,0.98,23.58,0.00,2.22,2.45,10.93,0.00,0.00,1.39
0,85.23,44.29,40.00,33.74,10.98,8.50,8.50,5.09,10.29,43.33,4.00,15.08,27.33,0.00,41.67,4.25,0.00,0.00,0.00,0.00,16.37,0.00,0.00,1.05,23.54,0.00,2.22,2.55,11.01,0.00,0.00,1.41
0,85.55,42.86,40.00,33.31,11.45,9.00,9.00,5.26,10.32,43.33,4.00,15.08,27.45,0.00,41.67,4.22,0.00,0.00,0.00,0.00,16.42,0.00,0.00,1.06,24.08,0.00,2.22,2.66,10.95,0.00,0.00,1.38
0,87.47,44.29,40.00,33.61,12.04,9.50,9.50,5.86,10.31,43.33,4.00,15.08,27.48,0.00,38.33,4.28,0.00,0.00,0.00,0.00,16.28,0.00,0.00,1.09,23.82,0.00,2.22,2.63,11.38,0.00,0.00,1.54
0,83.59,41.43,36.67,30.03,13.66,10.50,11.00,7.88,10.31,43.33,4.00,15.08,27.43,0.00,40.00,4.33,0.00,0.00,0.00,0.00,15.84,0.00,0.00,1.05,23.64,0.00,2.22,2.61,11.33,0.00,0.00,1.57
0,82.90,40.00,36.67,29.49,14.57,11.00,12.00,9.03,10.31,43.33,4.00,15.08,27.06,0.00,40.00,4.17,0.00,0.00,0.00,0.00,15.43,0.00,0.00,1.02,23.50,0.00,2.22,2.57,11.45,0.00,0.00,1.60
0,83.70,40.00,33.33,30.70,14.46,11.00,12.00,8.97,10.31,43.33,4.00,15.08,27.10,0.00,41.67,4.05,0.00,0.00,0.00,0.00,15.04,0.00,0.00,1.02,22.84,0.00,2.22,2.51,12.00,0.00,0.00,1.75
0,83.19,40.00,33.33,29.92,14.07,10.50,11.50,8.84,10.31,43.33,4.00,15.08,27.33,0.00,41.67,4.18,0.00,0.00,0.00,0.00,15.43,0.00,0.00,1.08,22.68,0.00,2.22,2.58,12.10,0.00,0.00,1.78
0,82.30,41.43,33.33,29.56,14.29,11.00,11.50,8.88,10.31,43.33,4.00,15.08,28.73,0.00,45.00,4.54,0.00,0.00,0.00,0.00,15.48,0.00,0.00,1.13,22.72,0.00,2.22,2.62,11.90,0.00,0.00,1.76
0,82.43,41.43,30.00,29.71,14.30,11.00,11.50,8.88,10.31,43.33,4.00,15.08,29.26,0.00,50.00,4.62,0.00,0.00,0.00,0.00,15.49,0.00,0.00,1.17,22.85,0.00,2.22,2.64,12.25,0.00,0.00,1.81
0,75.60,38.57,16.67,26.38,14.02,11.00,11.50,8.82,10.31,43.33,4.00,15.08,29.49,0.00,51.67,4.66,0.00,0.00,0.00,0.00,15.12,0.00,0.00,1.15,22.76,0.00,2.22,2.58,12.03,0.00,0.00,1.77
0,73.07,37.14,13.33,22.81,13.55,10.00,10.50,8.71,10.31,43.33,4.00,15.08,29.01,0.00,53.33,4.35,0.00,0.00,0.00,0.00,14.95,0.00,0.00,1.12,22.39,0.00,2.22,2.55,12.45,0.00,0.00,1.92
0,72.94,35.71,13.33,23.06,13.38,10.00,10.50,8.57,10.31,43.33,4.00,15.08,28.71,0.00,48.33,4.23,0.00,0.00,0.00,0.00,15.29,0.00,0.00,1.13,22.42,0.00,2.22,2.49,12.24,0.00,0.00,1.95
0,75.01,35.71,16.67,24.66,13.07,9.50,9.50,8.42,9.01,36.67,3.00,13.90,29.66,0.00,50.00,4.53,0.00,0.00,0.00,0.00,15.65,0.00,0.00,1.23,22.56,0.00,2.22,2.62,12.50,0.00,0.00,1.98
0,76.30,37.14,16.67,25.66,11.36,8.00,8.50,6.38,6.85,30.00,2.00,8.93,29.81,0.00,46.67,4.58,0.00,0.00,0.00,0.00,15.75,0.00,0.00,1.25,22.77,0.00,2.22,2.63,13.27,0.00,0.00,2.09
0,78.36,42.86,20.00,26.92,11.16,7.50,8.50,5.98,5.88,23.33,2.00,7.78,30.10,0.00,48.33,4.65,0.00,0.00,0.00,0.00,15.45,0.00,0.00,1.23,22.00,0.00,0.00,2.49,13.18,0.00,0.00,2.07
0,75.86,41.43,16.67,25.24,10.87,7.00,8.00,5.84,5.80,23.33,2.00,7.75,29.92,0.00,50.00,4.66,0.00,0.00,0.00,0.00,15.55,0.00,0.00,1.24,21.41,0.00,0.00,2.32,13.24,0.00,0.00,2.09
0,75.42,41.43,16.67,25.44,10.20,6.00,6.50,5.56,5.80,23.33,2.00,7.75,29.63,0.00,46.67,4.46,0.00,0.00,0.00,0.00,15.58,0.00,0.00,1.25,21.92,0.00,0.00,2.42,13.05,0.00,0.00,2.07
0,75.14,38.57,16.67,25.25,9.99,5.50,6.50,5.41,5.79,23.33,2.00,7.75,29.21,0.00,48.33,4.32,0.00,0.00,0.00,0.00,15.61,0.00,0.00,1.26,21.38,0.00,0.00,2.40,13.22,0.00,0.00,2.09
0,74.93,38.57,13.33,25.12,9.60,5.00,5.50,5.20,5.38,20.00,2.00,7.60,29.15,0.00,48.33,4.34,0.00,0.00,0.00,0.00,15.21,0.00,0.00,1.19,21.28,0.00,0.00,2.41,12.88,0.00,0.00,1.98
0,75.97,40.00,13.33,25.41,9.82,5.50,5.50,5.26,4.52,13.33,2.00,6.95,29.53,0.00,50.00,4.62,0.00,0.00,0.00,0.00,15.25,0.00,0.00,1.20,20.43,0.00,0.00,2.32,12.84,0.00,0.00,1.89
0,72.94,35.71,13.33,24.74,9.82,5.50,5.50,5.26,2.26,6.67,0.50,3.74,28.89,0.00,46.67,4.53,0.00,0.00,0.00,0.00,15.02,0.00,0.00,1.19,20.32,0.00,0.00,2.31,13.00,0.00,0.00,1.92
0,72.13,34.29,13.33,24.36,10.69,6.00,5.50,6.37,1.70,6.67,0.50,1.30,29.08,0.00,46.67,4.61,0.00,0.00,0.00,0.00,14.55,0.00,0.00,1.16,20.72,0.00,0.00,2.36,13.55,0.00,0.00,2.12
0,72.46,35.71,13.33,24.22,10.67,5.50,4.50,6.41,1.86,6.67,0.50,1.40,29.17,0.00,51.67,4.55,0.00,0.00,0.00,0.00,15.14,0.00,0.00,1.20,20.49,0.00,0.00,2.23,14.00,0.00,0.00,2.34
0,71.87,35.71,16.67,25.11,10.07,5.50,3.50,5.81,1.86,6.67,0.50,1.40,28.28,0.00,50.00,4.34,0.00,0.00,0.00,0.00,14.88,0.00,0.00,1.16,20.28,0.00,0.00,2.17,13.65,0.00,0.00,2.30
0,71.90,37.14,16.67,25.02,8.55,4.50,2.50,3.95,1.86,6.67,0.50,1.40,28.02,0.00,48.33,4.26,0.00,0.00,0.00,0.00,14.85,0.00,0.00,1.12,20.33,0.00,0.00,2.14,13.56,0.00,0.00,2.16
0,74.26,41.43,20.00,26.26,7.56,4.00,1.50,2.70,1.89,6.67,0.50,1.40,28.77,0.00,50.00,4.46,0.00,0.00,0.00,0.00,15.69,0.00,0.00,1.17,20.26,0.00,0.00,2.07,13.69,0.00,0.00,2.18
0,72.69,41.43,16.67,25.01,7.67,4.00,1.50,2.67,2.46,10.00,0.50,1.56,29.27,0.00,50.00,4.61,0.00,0.00,0.00,0.00,15.31,0.00,0.00,1.11,20.15,0.00,0.00,2.00,13.44,0.00,0.00,2.10
0,72.13,40.00,13.33,24.53,7.64,4.00,1.50,2.66,4.31,20.00,1.00,3.20,28.62,0.00,48.33,4.36,0.00,0.00,0.00,0.00,15.24,0.00,0.00,1.08,20.06,0.00,0.00,1.91,13.33,0.00,0.00,2.05
0,74.20,42.86,13.33,24.98,7.94,4.50,1.50,2.75,6.47,26.67,2.50,8.16,27.75,0.00,48.33,4.18,0.00,0.00,0.00,0.00,14.70,0.00,0.00,0.96,20.33,0.00,0.00,1.93,13.55,0.00,0.00,2.08
0,71.10,41.43,13.33,22.74,8.19,5.00,2.50,2.93,7.16,30.00,2.50,9.11,27.67,0.00,46.67,4.11,0.00,0.00,0.00,0.00,14.87,0.00,0.00,0.96,19.97,0.00,0.00,1.85,14.16,0.00,0.00,2.20
0,72.22,40.00,13.33,23.11,8.72,5.50,3.00,3.11,7.18,30.00,2.50,9.11,27.94,0.00,48.33,4.24,0.00,0.00,0.00,0.00,14.41,0.00,0.00,0.91,19.97,0.00,2.22,1.87,14.13,0.00,0.00,2.27
0,76.53,44.29,16.67,25.17,9.32,6.50,4.00,3.53,7.18,30.00,2.50,9.11,28.27,0.00,50.00,4.30,0.00,0.00,0.00,0.00,14.66,0.00,0.00,0.92,20.07,0.00,2.22,1.86,14.08,0.00,0.00,2.17
0,75.13,45.71,16.67,24.28,11.12,7.50,5.50,5.45,7.18,30.00,2.50,9.11,28.47,0.00,50.00,4.38,0.00,0.00,0.00,0.00,14.59,0.00,0.00,0.92,20.28,0.00,2.22,1.88,14.63,0.00,0.00,2.29
0,72.43,45.71,13.33,22.09,10.89,7.50,5.50,5.42,7.18,30.00,2.50,9.11,27.65,0.00,50.00,4.21,0.00,0.00,0.00,0.00,14.43,0.00,0.00,0.93,19.58,0.00,2.22,1.72,15.23,0.00,0.00,2.38
0,74.58,51.43,16.67,21.98,10.65,7.50,5.50,5.35,7.18,30.00,2.50,9.11,28.85,0.00,51.67,4.58,0.00,0.00,0.00,0.00,14.55,0.00,0.00,0.87,20.54,0.00,4.44,1.86,15.03,0.00,0.00,2.42
0,72.28,50.00,13.33,22.00,10.48,7.50,5.50,5.31,7.18,30.00,2.50,9.11,28.79,0.00,50.00,4.67,0.00,0.00,0.00,0.00,14.46,0.00,0.00,0.85,20.20,0.00,4.44,1.83,15.47,0.00,0.00,2.51
0,76.07,54.29,16.67,23.92,10.65,8.00,5.50,5.36,7.18,30.00,2.50,9.11,28.94,0.00,50.00,4.62,0.00,0.00,0.00,0.00,13.93,0.00,0.00,0.80,20.72,0.00,4.44,1.89,15.89,0.00,0.00,2.64
0,76.22,51.43,16.67,23.16,10.79,8.50,5.50,5.40,7.19,30.00,2.50,9.11,29.80,0.00,53.33,4.83,0.00,0.00,0.00,0.00,14.03,0.00,0.00,0.79,20.44,0.00,4.44,1.85,16.32,0.00,0.00,2.71
0,77.51,52.86,16.67,23.90,10.73,8.50,5.50,5.40,7.20,30.00,2.50,9.11,29.10,0.00,50.00,4.76,0.00,0.00,0.00,0.00,13.84,0.00,0.00,0.77,20.41,0.00,4.44,1.79,16.22,0.00,0.00,2.79
0,76.56,52.86,16.67,23.56,10.58,8.50,5.50,5.37,7.20,30.00,2.50,9.11,29.69,0.00,53.33,4.78,0.00,0.00,0.00,0.00,14.27,0.00,0.00,0.84,19.51,0.00,4.44,1.69,17.01,0.00,0.00,3.01
0,80.32,58.57,23.33,24.93,10.35,8.00,5.50,5.27,7.19,30.00,2.50,9.11,30.36,0.00,56.67,4.82,0.00,0.00,0.00,0.00,14.47,0.00,0.00,0.84,20.33,0.00,6.67,1.81,16.47,0.00,0.00,2.91
0,83.51,62.86,30.00,27.38,10.24,8.00,5.50,5.23,7.19,30.00,2.50,9.11,30.15,0.00,56.67,4.77,0.00,0.00,0.00,0.00,14.88,0.00,0.00,0.89,20.77,0.00,6.67,1.83,17.15,0.00,0.00,3.00
0,87.10,65.71,33.33,28.86,9.13,7.50,5.00,4.08,6.25,26.67,2.00,8.08,30.58,0.00,56.67,5.26,0.00,0.00,0.00,0.00,15.83,0.00,0.00,1.03,21.57,0.00,11.11,2.07,17.49,0.00,0.00,3.03
0,92.46,71.43,40.00,31.68,8.90,7.00,5.00,3.81,5.80,23.33,2.00,7.72,30.52,0.00,48.33,5.40,0.00,0.00,0.00,0.00,16.02,0.00,0.00,1.02,24.74,4.44,22.22,3.18,16.86,0.00,0.00,2.79
0,96.42,77.14,46.67,32.64,8.62,7.00,5.00,3.75,5.79,23.33,2.00,7.72,32.21,0.00,55.00,5.82,0.00,0.00,0.00,0.00,17.29,3.33,0.00,1.34,30.20,13.33,31.11,5.40,17.95,0.00,0.00,3.18
0,103.10,82.86,56.67,35.74,8.27,6.00,4.50,3.66,5.79,23.33,2.00,7.72,32.81,0.00,56.67,6.16,0.00,0.00,0.00,0.00,20.95,6.67,0.00,2.39,37.00,20.00,40.00,9.59,18.54,0.00,0.00,3.36
0,106.42,81.43,63.33,41.29,7.91,5.50,4.50,3.48,5.77,23.33,2.00,7.72,33.90,0.00,58.33,6.68,0.00,0.00,0.00,0.00,25.13,16.67,0.00,4.17,47.13,26.67,51.11,17.46,19.08,0.00,0.00,3.54
1,109.19,81.43,63.33,42.32,7.73,5.50,4.50,3.44,5.35,20.00,2.00,7.57,36.95,5.00,63.33,8.44,0.00,0.00,0.00,0.00,26.27,16.67,0.00,4.44,57.80,33.33,60.00,31.19,20.15,3.33,0.00,4.24
1,113.33,82.86,73.33,46.09,7.71,5.50,4.50,3.43,4.57,13.33,2.00,7.03,40.20,10.00,68.33,10.58,0.00,0.00,0.00,0.00,29.83,30.00,0.00,5.51,67.16,37.78,66.67,46.20,21.17,3.33,0.00,4.65
1,117.28,88.57,86.67,48.15,7.68,5.50,5.00,3.40,4.17,13.33,1.50,6.85,41.15,10.00,68.33,10.86,0.00,0.00,0.00,0.00,33.17,33.33,0.00,6.71,77.57,46.67,73.33,56.20,21.26,3.33,0.00,4.63
1,124.45,94.29,100.00,51.02,8.30,6.50,5.00,4.04,3.19,13.33,1.00,3.96,42.73,10.00,68.33,11.71,0.00,0.00,0.00,0.00,36.13,40.00,0.00,7.34,84.39,55.56,82.22,61.50,21.25,3.33,0.00,4.48
1,127.16,94.29,106.67,54.41,8.09,6.00,4.50,3.96,3.24,13.33,1.00,3.98,45.02,20.00,65.00,13.91,0.00,0.00,0.00,0.00,40.24,46.67,0.00,9.28,92.95,62.22,88.89,68.03,22.66,6.67,0.00,5.26
1,127.45,97.14,106.67,54.13,7.62,5.50,3.50,3.56,3.24,13.33,1.00,3.98,48.67,30.00,70.00,15.29,0.00,0.00,0.00,0.00,42.94,50.00,0.00,10.01,99.23,68.89,97.78,73.66,23.55,6.67,0.00,5.52
1,133.13,102.86,120.00,57.78,6.08,4.50,2.00,1.81,3.23,13.33,1.00,3.98,50.35,30.00,76.67,15.79,0.00,0.00,0.00,0.00,45.70,53.33,0.00,11.09,104.61,75.56,104.44,75.40,25.29,13.33,8.33,6.92
1,139.02,104.29,126.67,62.07,6.29,5.00,2.50,1.78,4.09,20.00,1.00,4.61,51.72,30.00,80.00,16.27,0.00,0.00,0.00,0.00,46.63,56.67,0.00,11.50,115.49,82.22,113.33,87.57,26.23,16.67,8.33,7.56
1,144.35,107.14,136.67,67.00,6.83,5.50,3.50,1.96,6.46,26.67,2.00,8.19,51.63,30.00,83.33,16.11,0.00,0.00,0.00,0.00,50.09,63.33,0.00,12.27,119.75,88.89,124.44,90.18,26.79,16.67,8.33,7.79
1,146.24,104.29,136.67,68.61,6.91,5.50,3.50,1.99,8.25,33.33,3.00,11.91,53.75,30.00,88.33,17.24,0.00,0.00,0.00,0.00,56.26,73.33,0.00,16.19,127.55,93.33,137.78,96.26,28.52,26.67,8.33,8.71
1,148.63,104.29,140.00,71.46,7.11,6.00,3.50,2.02,8.29,33.33,3.00,11.93,56.12,30.00,91.67,18.53,0.00,0.00,0.00,0.00,59.24,76.67,0.00,17.41,131.59,95.56,148.89,98.61,29.69,26.67,8.33,9.46
1,152.17,108.57,146.67,73.46,7.59,6.00,5.00,2.44,8.29,33.33,3.00,11.93,58.10,30.00,95.00,19.33,0.00,0.00,0.00,0.00,63.83,83.33,5.00,19.40,142.39,108.89,162.22,105.88,30.09,26.67,8.33,9.68
1,155.11,111.43,150.00,77.95,9.54,7.50,6.00,4.64,8.28,33.33,3.00,11.93,59.77,30.00,103.33,19.82,0.00,0.00,0.00,0.00,68.17,93.33,5.00,21.60,147.24,113.33,173.33,108.32,30.86,26.67,8.33,10.04
1,162.20,114.29,160.00,82.10,9.70,8.00,6.00,5.02,8.28,33.33,3.00,11.93,60.57,30.00,105.00,19.96,0.00,0.00,0.00,0.00,71.03,103.33,5.00,23.27,152.73,115.56,175.56,113.23,31.21,26.67,8.33,10.24
1,166.06,114.29,163.33,86.99,9.58,8.00,6.00,5.01,8.28,33.33,3.00,11.93,60.89,30.00,105.00,20.13,0.00,0.00,0.00,0.00,73.32,103.33,5.00,23.86,157.14,120.00,180.00,116.70,31.78,26.67,8.33,10.45
1,167.40,112.86,166.67,90.80,9.32,8.00,6.00,4.99,8.29,33.33,3.00,11.93,63.14,30.00,113.33,20.54,0.00,0.00,0.00,0.00,74.56,106.67,5.00,24.19,162.70,124.44,188.89,120.02,33.35,30.00,8.33,11.36
1,172.59,115.71,170.00,96.67,8.97,7.50,5.50,4.89,8.30,33.33,3.00,11.93,63.06,30.00,115.00,20.47,0.00,0.00,0.00,0.00,81.68,123.33,10.00,28.32,169.50,131.11,195.56,124.14,33.37,30.00,8.33,11.31
1,173.27,114.29,170.00,99.54,9.01,7.50,5.50,4.90,8.32,33.33,3.00,11.93,62.99,30.00,115.00,20.10,0.00,0.00,0.00,0.00,84.04,126.67,10.00,29.52,169.85,128.89,195.56,125.29,34.07,30.00,8.33,11.51
1,175.19,108.57,170.00,102.11,9.08,7.50,5.50,4.91,8.29,33.33,3.00,11.93,62.26,30.00,113.33,20.03,0.00,0.00,0.00,0.00,84.44,126.67,10.00,30.74,173.06,128.89,195.56,128.58,33.95,30.00,8.33,11.47
1,173.37,108.57,170.00,101.29,9.41,8.00,6.00,5.01,8.29,33.33,3.00,11.93,62.21,30.00,113.33,19.85,0.00,0.00,0.00,0.00,85.69,130.00,10.00,31.55,175.95,128.89,193.33,134.11,33.00,30.00,8.33,11.04
1,170.70,110.00,176.67,96.99,9.39,8.00,6.00,5.01,8.29,33.33,3.00,11.93,62.88,30.00,116.67,19.72,0.00,0.00,0.00,0.00,81.82,123.33,10.00,30.12,172.23,128.89,188.89,129.73,33.29,30.00,8.33,11.11
1,172.13,111.43,176.67,98.06,9.73,9.00,6.00,5.09,8.29,33.33,3.00,11.93,60.10,25.00,113.33,18.41,0.00,0.00,0.00,0.00,81.77,120.00,10.00,29.81,167.86,126.67,193.33,122.21,32.89,30.00,8.33,10.85
1,169.60,110.00,173.33,96.05,9.91,9.00,6.00,5.16,8.29,33.33,3.00,11.93,58.19,20.00,115.00,16.54,0.00,0.00,0.00,0.00,83.27,120.00,15.00,30.91,166.74,126.67,193.33,117.59,32.62,26.67,8.33,10.57
1,168.87,105.71,163.33,97.69,9.99,9.00,6.00,5.19,6.99,30.00,2.00,10.75,56.97,20.00,111.67,16.04,0.00,0.00,0.00,0.00,82.88,120.00,15.00,30.68,160.73,126.67,193.33,104.83,33.06,26.67,8.33,10.70
1,164.29,100.00,153.33,96.51,9.14,7.50,5.00,4.55,5.78,23.33,2.00,8.10,56.65,20.00,111.67,15.87,0.00,0.00,0.00,0.00,80.95,110.00,15.00,30.11,158.26,124.44,193.33,103.09,33.49,26.67,8.33,10.87
1,166.66,102.86,153.33,100.54,9.26,7.50,5.50,4.49,5.52,20.00,2.00,7.96,55.20,10.00,116.67,13.76,0.00,0.00,0.00,0.00,80.07,110.00,20.00,29.18,152.75,117.78,188.89,99.17,32.35,23.33,8.33,10.26
1,164.52,101.43,156.67,99.49,9.13,7.50,5.50,4.46,7.45,26.67,3.00,11.18,53.57,0.00,113.33,12.98,0.00,0.00,0.00,0.00,79.41,110.00,20.00,29.20,146.28,108.89,188.89,91.74,31.87,23.33,8.33,9.87
1,161.11,97.14,146.67,97.89,10.27,8.00,6.50,6.09,8.92,33.33,3.50,13.17,51.24,0.00,106.67,12.34,0.00,0.00,0.00,0.00,79.42,110.00,20.00,29.03,148.30,111.11,188.89,94.35,30.67,20.00,0.00,9.09
1,157.80,97.14,140.00,95.31,11.29,8.50,7.00,7.26,9.10,33.33,3.50,13.46,51.06,0.00,108.33,12.14,0.00,0.00,0.00,0.00,81.34,113.33,25.00,30.01,142.25,106.67,188.89,86.66,29.50,16.67,0.00,8.40
1,157.35,95.71,140.00,94.50,11.19,8.50,6.00,7.25,7.13,26.67,2.50,10.07,52.43,0.00,110.00,12.33,0.00,0.00,0.00,0.00,81.66,113.33,25.00,30.68,138.49,100.00,180.00,83.77,29.00,16.67,0.00,8.30
1,156.58,95.71,133.33,95.18,11.49,9.00,6.50,7.42,5.01,20.00,1.50,6.14,49.98,0.00,105.00,11.37,0.00,0.00,0.00,0.00,76.57,106.67,25.00,27.67,136.13,102.22,173.33,80.97,27.46,10.00,0.00,7.43
1,158.96,100.00,140.00,94.57,11.56,9.00,6.50,7.44,5.06,20.00,1.50,6.10,47.71,0.00,100.00,10.07,0.00,0.00,0.00,0.00,77.11,110.00,25.00,28.03,135.58,102.22,166.67,80.79,26.16,6.67,0.00,6.70
1,158.27,97.14,140.00,95.10,11.25,8.50,5.50,7.35,6.80,26.67,2.00,7.58,45.67,0.00,100.00,9.29,0.00,0.00,0.00,0.00,73.88,103.33,20.00,26.13,129.65,95.56,157.78,78.42,26.23,6.67,0.00,6.61
1,157.08,95.71,146.67,92.71,10.08,8.00,5.00,6.49,8.98,33.33,3.50,12.70,45.26,0.00,95.00,9.09,0.00,0.00,0.00,0.00,72.00,96.67,20.00,25.32,130.09,95.56,155.56,79.10,25.89,6.67,0.00,6.27
1,158.91,95.71,146.67,94.53,9.54,7.50,6.00,4.80,9.68,36.67,3.50,13.66,45.84,5.00,91.67,10.24,0.00,0.00,0.00,0.00,69.30,86.67,20.00,23.64,133.14,102.22,162.22,80.93,26.22,6.67,0.00,6.27
1,153.52,94.29,136.67,92.07,10.09,8.00,6.50,5.03,9.71,36.67,3.50,13.66,44.29,5.00,83.33,9.93,0.00,0.00,0.00,0.00,67.60,83.33,20.00,23.19,130.18,100.00,157.78,77.59,26.13,6.67,0.00,6.24
1,152.32,94.29,130.00,89.94,11.91,9.00,7.50,7.17,9.71,36.67,3.50,13.66,43.35,5.00,78.33,9.95,0.00,0.00,0.00,0.00,70.51,90.00,25.00,25.51,127.03,95.56,153.33,73.73,24.52,3.33,0.00,5.36
1,154.88,98.57,133.33,89.32,13.38,10.00,9.00,8.58,9.68,36.67,3.50,13.66,42.73,5.00,75.00,9.64,0.00,0.00,0.00,0.00,65.78,76.67,20.00,22.95,121.05,88.89,144.44,70.63,24.64,3.33,0.00,5.30
1,157.95,101.43,136.67,92.38,13.40,10.00,9.00,8.63,9.68,36.67,3.50,13.66,43.07,5.00,78.33,9.74,0.00,0.00,0.00,0.00,65.04,76.67,20.00,21.60,123.69,88.89,137.78,75.54,23.75,3.33,0.00,5.08
1,155.15,104.29,133.33,88.44,13.40,10.00,9.00,8.60,9.67,36.67,3.50,13.66,43.32,5.00,76.67,9.83,0.00,0.00,0.00,0.00,63.70,73.33,20.00,20.01,123.56,93.33,135.56,77.39,24.17,3.33,0.00,5.31
1,153.74,102.86,126.67,87.29,13.17,9.50,8.50,8.52,9.67,36.67,3.50,13.66,43.89,5.00,78.33,10.29,0.00,0.00,0.00,0.00,62.27,66.67,20.00,19.00,121.91,88.89,135.56,76.45,25.06,3.33,0.00,5.80
1,149.91,97.14,106.67,86.63,13.34,9.50,8.50,8.54,9.67,36.67,3.50,13.66,44.30,5.00,76.67,10.75,0.00,0.00,0.00,0.00,63.06,66.67,20.00,18.91,120.06,86.67,135.56,74.00,26.08,6.67,0.00,6.29
1,155.05,100.00,120.00,89.85,13.47,9.50,9.00,8.60,9.67,36.67,3.50,13.66,44.05,5.00,75.00,10.92,0.00,0.00,0.00,0.00,64.31,70.00,20.00,19.16,119.27,88.89,137.78,72.69,26.66,6.67,0.00,6.51
1,157.27,105.71,126.67,89.41,13.10,9.00,9.00,8.52,9.67,36.67,3.50,13.66,43.60,5.00,70.00,10.86,0.00,0.00,0.00,0.00,62.94,66.67,15.00,19.25,116.26,91.11,137.78,68.08,26.12,6.67,0.00,6.40
1,158.92,108.57,133.33,89.98,12.70,8.50,8.50,8.43,9.67,36.67,3.50,13.66,46.92,15.00,76.67,12.09,0.00,0.00,0.00,0.00,61.14,63.33,15.00,18.50,113.88,88.89,133.33,66.93,26.06,6.67,0.00,6.56
1,160.69,108.57,130.00,93.34,12.52,8.50,8.50,8.33,9.68,36.67,3.50,13.66,46.25,15.00,78.33,11.96,0.00,0.00,0.00,0.00,62.74,66.67,15.00,19.30,113.26,88.89,133.33,65.70,24.95,6.67,0.00,6.16
1,159.36,105.71,130.00,91.94,12.18,8.00,8.00,8.22,9.68,36.67,3.50,13.66,45.72,15.00,73.33,12.41,0.00,0.00,0.00,0.00,60.76,60.00,10.00,18.85,117.71,93.33,135.56,69.70,25.31,6.67,0.00,6.32
1,157.60,105.71,130.00,91.20,12.36,8.50,8.00,8.28,8.19,33.33,2.50,11.04,45.83,15.00,71.67,12.56,0.00,0.00,0.00,0.00,60.73,60.00,10.00,18.85,119.06,100.00,133.33,70.91,24.91,6.67,0.00,6.19
1,158.16,105.71,130.00,91.87,11.06,7.50,7.00,6.86,6.41,23.33,2.00,8.60,46.57,15.00,78.33,12.69,0.00,0.00,0.00,0.00,59.83,56.67,10.00,18.50,115.87,95.56,128.89,69.31,26.17,10.00,0.00,6.62
1,160.32,108.57,133.33,92.48,9.86,6.50,6.00,5.32,5.43,16.67,2.00,7.64,46.82,15.00,81.67,12.52,0.00,0.00,0.00,0.00,56.79,50.00,5.00,17.33,114.69,93.33,126.67,67.34,25.48,10.00,0.00,6.33
1,161.07,108.57,136.67,91.69,9.61,6.00,6.00,5.24,5.32,16.67,2.00,7.58,46.16,15.00,78.33,12.53,0.00,0.00,0.00,0.00,56.21,46.67,5.00,16.38,117.75,93.33,131.11,72.13,25.63,10.00,0.00,6.37
1,161.66,107.14,143.33,93.27,9.27,5.50,5.50,5.02,5.73,20.00,2.00,7.58,46.69,15.00,80.00,12.72,0.00,0.00,0.00,0.00,58.70,53.33,10.00,17.98,118.79,93.33,133.33,73.81,25.76,10.00,0.00,6.31
1,163.95,108.57,146.67,92.98,10.19,5.50,6.50,6.37,7.85,30.00,3.00,11.27,46.97,15.00,83.33,12.68,0.00,0.00,0.00,0.00,57.79,50.00,10.00,17.16,118.50,93.33,133.33,72.30,25.62,10.00,0.00,6.25
1,163.34,108.57,146.67,92.50,10.65,6.50,6.50,6.90,7.77,30.00,3.00,11.71,48.68,20.00,83.33,13.63,0.00,0.00,0.00,0.00,56.01,46.67,10.00,16.15,115.76,86.67,133.33,69.62,25.19,10.00,0.00,6.10
1,161.33,108.57,140.00,91.51,10.51,6.50,6.00,6.80,5.44,23.33,1.50,8.18,48.47,20.00,83.33,13.65,0.00,0.00,0.00,0.00,55.93,46.67,10.00,15.98,114.08,86.67,131.11,67.61,24.83,10.00,0.00,6.04
1,156.01,105.71,133.33,85.75,10.33,6.00,5.50,6.67,3.65,16.67,1.00,4.45,46.19,15.00,80.00,12.19,0.00,0.00,0.00,0.00,56.22,46.67,10.00,15.77,111.98,82.22,126.67,66.06,24.24,10.00,0.00,5.77
1,156.95,102.86,133.33,85.71,10.08,5.50,5.00,6.56,3.72,16.67,1.00,4.45,48.33,20.00,86.67,12.98,0.00,0.00,0.00,0.00,55.75,46.67,10.00,15.52,110.93,77.78,131.11,65.56,24.12,10.00,0.00,5.82
1,159.99,108.57,146.67,83.93,8.73,5.00,4.00,4.72,5.29,23.33,1.50,6.57,48.42,20.00,88.33,13.07,0.00,0.00,0.00,0.00,51.65,36.67,5.00,12.65,112.75,80.00,133.33,66.44,23.75,10.00,0.00,5.86
1,157.45,105.71,146.67,81.71,7.18,3.50,2.50,3.06,7.33,30.00,2.50,10.21,48.48,20.00,88.33,13.19,0.00,0.00,0.00,0.00,53.86,40.00,5.00,13.82,117.35,84.44,142.22,70.58,23.97,13.33,0.00,5.93
1,150.99,102.86,133.33,78.35,7.24,4.00,2.50,2.98,7.57,30.00,2.50,10.48,48.75,20.00,88.33,13.31,0.00,0.00,0.00,0.00,52.83,40.00,5.00,13.75,113.69,82.22,140.00,64.72,24.64,13.33,0.00,6.56
1,151.72,102.86,136.67,77.71,7.58,4.50,3.00,3.10,7.58,30.00,2.50,10.48,50.15,20.00,91.67,13.86,0.00,0.00,0.00,0.00,51.64,33.33,5.00,13.31,114.22,84.44,142.22,64.70,24.54,13.33,0.00,6.38
1,153.76,107.14,146.67,77.30,8.47,5.50,4.50,3.52,7.58,30.00,2.50,10.48,49.97,20.00,95.00,13.50,0.00,0.00,0.00,0.00,53.73,43.33,10.00,13.99,109.67,80.00,146.67,58.06,24.94,13.33,0.00,6.50
1,152.78,108.57,150.00,76.88,9.57,6.50,5.50,4.84,7.60,30.00,2.50,10.48,49.10,20.00,98.33,12.84,0.00,0.00,0.00,0.00,54.97,50.00,10.00,14.63,104.58,75.56,142.22,54.08,23.27,10.00,0.00,5.84
1,151.44,108.57,150.00,75.15,9.34,6.00,5.00,4.75,7.61,30.00,2.50,10.48,51.35,25.00,103.33,13.68,0.00,0.00,0.00,0.00,54.50,50.00,10.00,14.53,103.26,68.89,135.56,53.08,23.30,10.00,0.00,5.43
1,151.20,110.00,150.00,75.03,9.52,6.00,5.00,4.78,7.61,30.00,2.50,10.48,51.64,25.00,103.33,13.56,0.00,0.00,0.00,0.00,51.73,40.00,10.00,13.49,103.53,68.89,135.56,54.28,24.35,10.00,0.00,6.11
1,152.96,110.00,146.67,76.07,9.72,6.00,5.00,4.82,7.61,30.00,2.50,10.48,50.78,20.00,100.00,13.49,0.00,0.00,0.00,0.00,52.44,40.00,10.00,13.52,103.21,64.44,135.56,55.46,24.48,10.00,0.00,5.92
1,152.86,110.00,153.33,76.24,9.66,6.00,5.00,4.81,7.60,30.00,2.50,10.48,50.33,20.00,101.67,12.97,0.00,0.00,0.00,0.00,52.70,43.33,10.00,12.77,105.37,66.67,142.22,55.98,24.94,10.00,0.00,5.98
1,157.29,115.71,163.33,76.23,9.80,6.00,5.00,4.84,7.61,30.00,2.50,10.48,50.95,20.00,105.00,13.10,0.00,0.00,0.00,0.00,53.13,46.67,15.00,13.13,106.42,66.67,142.22,57.21,26.28,13.33,0.00,6.43
1,155.04,114.29,156.67,75.15,9.70,5.50,5.00,4.80,7.61,30.00,2.50,10.48,52.42,25.00,108.33,14.05,0.00,0.00,0.00,0.00,55.70,56.67,15.00,14.14,109.09,66.67,144.44,59.67,26.59,13.33,0.00,6.61
1,157.82,115.71,160.00,77.06,9.59,5.50,5.00,4.76,7.58,30.00,2.50,10.48,53.98,30.00,106.67,14.56,0.00,0.00,0.00,0.00,55.05,56.67,15.00,13.59,111.33,68.89,148.89,62.56,25.11,6.67,0.00,5.80
1,163.04,117.14,163.33,82.69,9.56,5.50,5.00,4.76,7.57,30.00,2.50,10.48,54.29,30.00,106.67,15.11,0.00,0.00,0.00,0.00,60.23,63.33,25.00,17.50,119.11,75.56,155.56,70.78,26.99,13.33,0.00,6.56
1,164.18,120.00,166.67,82.57,9.64,6.00,5.50,4.79,7.57,30.00,2.50,10.48,54.14,30.00,105.00,15.20,0.00,0.00,0.00,0.00,61.16,66.67,25.00,17.80,116.35,73.33,151.11,68.08,27.19,13.33,0.00,6.80
1,164.37,122.86,170.00,80.81,9.59,6.00,5.50,4.77,7.57,30.00,2.50,10.48,52.92,30.00,105.00,14.71,0.00,0.00,0.00,0.00,57.12,56.67,20.00,15.64,118.64,77.78,148.89,70.39,28.74,16.67,0.00,7.77
1,166.85,122.86,173.33,86.02,9.52,6.50,5.00,4.80,5.53,20.00,1.50,7.05,53.30,30.00,105.00,14.86,0.00,0.00,0.00,0.00,57.72,60.00,20.00,16.06,121.62,80.00,148.89,72.95,29.30,16.67,0.00,7.94
1,161.59,118.57,163.33,82.60,8.17,5.50,4.50,2.88,4.53,13.33,1.50,6.07,53.02,25.00,100.00,15.12,0.00,0.00,0.00,0.00,58.34,63.33,20.00,16.55,125.09,84.44,153.33,76.52,29.65,16.67,0.00,8.16
1,164.64,118.57,170.00,85.24,7.97,5.00,4.00,2.82,4.42,13.33,1.50,6.05,52.66,25.00,105.00,14.13,0.00,0.00,0.00,0.00,60.23,66.67,20.00,17.01,127.19,84.44,153.33,78.93,29.93,16.67,0.00,8.40
1,171.00,127.14,183.33,89.31,8.11,5.00,4.00,2.86,5.91,16.67,2.50,8.67,54.89,30.00,110.00,15.10,0.00,0.00,0.00,0.00,58.19,63.33,20.00,16.51,127.75,84.44,160.00,79.00,30.44,16.67,0.00,8.57
1,174.67,130.00,190.00,93.51,9.40,5.50,4.50,4.46,7.38,26.67,2.50,10.49,54.12,25.00,108.33,14.50,0.00,0.00,0.00,0.00,58.47,63.33,20.00,16.69,125.66,84.44,157.78,76.91,30.39,16.67,0.00,8.60
1,175.47,128.57,186.67,95.02,9.44,5.50,4.50,4.59,6.38,23.33,2.00,9.76,53.92,25.00,110.00,14.34,0.00,0.00,0.00,0.00,59.75,66.67,20.00,17.21,128.17,86.67,160.00,78.69,30.27,16.67,0.00,8.53
1,177.75,130.00,190.00,96.53,9.48,5.50,4.50,4.59,4.32,16.67,1.00,5.48,54.01,25.00,111.67,14.41,0.00,0.00,0.00,0.00,58.24,63.33,20.00,16.29,126.50,86.67,162.22,75.82,30.75,16.67,0.00,8.66
1,179.22,131.43,200.00,95.99,9.41,5.00,4.50,4.56,3.63,13.33,1.00,4.56,54.33,25.00,111.67,14.78,0.00,0.00,0.00,0.00,57.93,63.33,20.00,16.03,129.78,88.89,162.22,80.14,30.84,16.67,0.00,8.65
1,179.95,131.43,196.67,94.59,9.20,4.50,4.00,4.48,4.30,16.67,1.00,4.97,54.14,25.00,110.00,14.68,0.00,0.00,0.00,0.00,58.58,63.33,20.00,16.47,134.05,91.11,162.22,86.76,31.15,16.67,0.00,9.01
1,179.22,127.14,190.00,96.73,8.80,3.50,3.00,4.18,6.31,23.33,2.00,8.33,52.81,25.00,106.67,14.32,0.00,0.00,0.00,0.00,57.23,56.67,15.00,15.91,132.19,84.44,155.56,85.43,29.78,16.67,0.00,8.64
1,180.41,125.71,193.33,98.91,7.67,3.00,2.00,2.92,6.42,23.33,2.00,8.37,52.49,25.00,103.33,14.26,0.00,0.00,0.00,0.00,56.16,50.00,15.00,16.29,132.13,86.67,153.33,85.61,29.89,16.67,0.00,8.58
1,179.41,124.29,186.67,99.65,7.63,3.00,2.00,2.93,6.42,23.33,2.00,8.37,50.95,20.00,100.00,13.28,0.00,0.00,0.00,0.00,57.86,50.00,15.00,16.65,136.25,91.11,155.56,91.97,29.78,16.67,0.00,8.62
1,177.16,120.00,176.67,99.71,8.05,3.50,2.00,3.03,6.42,23.33,2.00,8.37,51.30,20.00,105.00,13.24,0.00,0.00,0.00,0.00,59.36,56.67,20.00,17.35,135.35,91.11,153.33,91.79,29.21,16.67,0.00,8.24
1,172.24,115.71,166.67,96.07,9.51,4.50,3.50,5.09,6.42,23.33,2.00,8.37,49.34,15.00,103.33,12.25,0.00,0.00,0.00,0.00,60.87,60.00,20.00,17.70,134.59,88.89,155.56,90.10,28.01,16.67,0.00,7.78
1,174.91,120.00,180.00,95.64,10.26,5.50,3.50,5.76,6.42,23.33,2.00,8.37,49.13,15.00,100.00,12.29,0.00,0.00,0.00,0.00,61.03,60.00,25.00,18.33,137.26,93.33,155.56,92.77,28.30,16.67,0.00,7.87
1,173.08,118.57,173.33,93.38,10.24,5.50,3.50,5.76,6.42,23.33,2.00,8.37,48.61,15.00,101.67,11.99,0.00,0.00,0.00,0.00,61.92,66.67,25.00,18.73,132.14,86.67,153.33,87.70,26.96,13.33,0.00,7.55
1,169.59,115.71,170.00,91.17,10.11,5.50,3.50,5.73,6.42,23.33,2.00,8.37,47.53,15.00,98.33,11.48,0.00,0.00,0.00,0.00,61.98,66.67,25.00,18.47,129.74,86.67,153.33,84.51,26.24,13.33,0.00,7.35
1,174.43,118.57,176.67,93.10,10.33,6.50,4.00,5.80,6.41,23.33,2.00,8.37,47.51,15.00,96.67,11.17,0.00,0.00,0.00,0.00,62.08,66.67,25.00,18.34,128.60,86.67,148.89,83.33,26.30,13.33,0.00,7.37
1,177.03,121.43,183.33,93.35,10.53,6.50,4.00,5.87,6.42,23.33,2.00,8.37,46.28,10.00,93.33,10.79,0.00,0.00,0.00,0.00,56.68,56.67,15.00,14.88,128.00,88.89,148.89,82.53,24.56,6.67,0.00,6.79
1,173.86,118.57,176.67,91.03,10.46,6.00,3.50,5.84,6.42,23.33,2.00,8.37,46.07,10.00,95.00,10.91,0.00,0.00,0.00,0.00,57.46,60.00,15.00,14.90,122.64,86.67,144.44,76.59,24.28,6.67,0.00,6.60
1,168.81,114.29,166.67,88.62,10.83,6.50,4.00,5.95,6.43,23.33,2.00,8.37,46.05,10.00,91.67,11.12,0.00,0.00,0.00,0.00,59.11,66.67,15.00,15.33,120.34,86.67,142.22,75.78,23.53,3.33,0.00,6.16
1,165.90,114.29,163.33,85.41,10.75,6.00,4.00,5.92,6.42,23.33,2.00,8.37,46.70,10.00,95.00,11.26,0.00,0.00,0.00,0.00,61.37,70.00,15.00,16.81,114.28,80.00,137.78,68.98,22.87,3.33,0.00,5.83
1,169.17,117.14,163.33,86.68,10.50,6.00,4.00,5.88,6.43,23.33,2.00,8.37,46.48,10.00,96.67,10.96,0.00,0.00,0.00,0.00,62.59,73.33,15.00,16.72,112.83,80.00,135.56,66.58,22.74,3.33,0.00,5.76
1,169.86,118.57,163.33,87.93,10.57,6.00,4.00,5.86,6.43,23.33,2.00,8.37,45.16,10.00,90.00,10.76,0.00,0.00,0.00,0.00,65.63,83.33,15.00,17.54,108.33,75.56,135.56,63.14,21.62,3.33,0.00,5.22
1,165.97,115.71,153.33,86.74,10.70,6.50,4.50,5.93,6.02,23.33,1.50,8.38,43.88,5.00,88.33,10.05,0.00,0.00,0.00,0.00,69.04,93.33,15.00,18.36,107.02,75.56,126.67,62.06,20.84,3.33,0.00,5.03
1,164.70,114.29,150.00,86.54,9.74,6.00,3.50,4.63,3.77,13.33,1.00,4.63,43.37,5.00,83.33,10.21,0.00,0.00,0.00,0.00,69.97,96.67,15.00,18.79,106.92,75.56,120.00,62.80,22.23,3.33,0.00,5.44
1,165.31,114.29,153.33,88.73,9.37,5.50,3.50,4.22,3.29,10.00,1.00,3.83,42.77,5.00,81.67,9.97,0.00,0.00,0.00,0.00,68.38,96.67,15.00,18.78,106.20,73.33,122.22,61.48,21.93,3.33,0.00,5.32
1,163.14,111.43,146.67,89.07,9.47,6.00,3.50,4.26,3.28,10.00,1.00,3.83,43.72,5.00,80.00,10.28,0.00,0.00,0.00,0.00,70.26,103.33,20.00,19.66,102.98,68.89,120.00,59.29,21.59,3.33,0.00,5.31
1,162.86,108.57,136.67,90.65,11.05,7.00,4.50,6.45,5.20,20.00,2.00,6.99,44.14,5.00,81.67,10.28,0.00,0.00,0.00,0.00,73.44,110.00,25.00,21.28,99.60,64.44,120.00,55.54,21.23,3.33,0.00,4.84
1,164.01,110.00,140.00,93.34,11.84,8.00,5.00,7.32,5.91,23.33,2.00,8.15,44.42,5.00,85.00,10.45,0.00,0.00,0.00,0.00,74.15,116.67,30.00,21.83,100.15,66.67,126.67,53.82,20.75,0.00,0.00,4.22
1,162.21,110.00,133.33,91.48,12.01,8.50,6.00,7.41,3.98,16.67,1.00,5.03,43.90,5.00,83.33,10.30,0.00,0.00,0.00,0.00,73.61,116.67,30.00,21.60,100.38,68.89,131.11,52.56,20.86,0.00,0.00,4.38
1,159.57,111.43,130.00,88.47,12.08,8.50,6.00,7.48,3.70,16.67,1.00,4.69,43.86,5.00,80.00,10.30,0.00,0.00,0.00,0.00,72.50,116.67,30.00,21.05,101.49,68.89,135.56,53.10,21.41,0.00,0.00,4.60
1,158.90,108.57,130.00,85.67,12.30,9.00,6.50,7.59,3.70,16.67,1.00,4.69,46.23,5.00,86.67,10.77,0.00,0.00,0.00,0.00,70.64,113.33,30.00,19.71,96.52,64.44,135.56,48.45,21.28,0.00,0.00,4.59
1,158.23,107.14,130.00,84.95,12.32,9.50,7.00,7.61,5.13,23.33,1.50,5.88,46.49,5.00,83.33,11.23,0.00,0.00,0.00,0.00,69.06,110.00,25.00,19.08,95.78,66.67,137.78,44.67,20.83,0.00,0.00,4.48
1,159.27,108.57,133.33,86.00,11.54,8.50,6.00,7.21,7.56,33.33,2.50,8.87,45.35,5.00,80.00,10.95,0.00,0.00,0.00,0.00,69.52,110.00,25.00,18.76,94.08,64.44,133.33,44.78,20.77,0.00,0.00,4.45
1,156.41,102.86,123.33,86.51,10.30,7.50,6.00,4.97,8.42,36.67,3.00,11.35,47.17,10.00,81.67,11.73,0.00,0.00,0.00,0.00,66.87,103.33,20.00,17.56,90.50,60.00,126.67,41.31,21.34,0.00,0.00,4.63
1,156.21,100.00,120.00,89.18,10.65,8.00,7.00,5.18,8.46,36.67,3.00,11.35,47.03,15.00,80.00,12.05,0.00,0.00,0.00,0.00,66.40,103.33,15.00,17.31,88.27,55.56,120.00,40.45,21.02,0.00,0.00,4.52
1,158.67,101.43,120.00,91.90,11.51,9.00,8.00,5.66,8.46,36.67,3.00,11.35,46.18,10.00,78.33,11.70,0.00,0.00,0.00,0.00,62.40,90.00,15.00,16.11,86.33,55.56,111.11,40.60,21.18,0.00,0.00,4.48
1,156.69,98.57,113.33,94.69,13.01,9.50,9.00,7.84,8.47,36.67,3.00,11.35,46.54,10.00,80.00,11.91,0.00,0.00,0.00,0.00,61.72,86.67,15.00,15.74,84.72,53.33,108.89,39.58,20.97,0.00,0.00,4.38
1,150.91,98.57,106.67,86.23,12.85,9.00,8.50,7.93,8.46,36.67,3.00,11.35,47.45,10.00,86.67,11.79,0.00,0.00,0.00,0.00,61.20,86.67,15.00,15.64,83.64,48.89,113.33,37.71,21.17,0.00,0.00,4.46
1,154.13,97.14,116.67,91.31,12.58,9.00,8.50,7.88,8.47,36.67,3.00,11.35,46.46,10.00,85.00,11.34,0.00,0.00,0.00,0.00,61.71,93.33,15.00,16.05,79.34,44.44,113.33,33.55,22.25,0.00,0.00,4.92
1,155.03,97.14,113.33,92.73,12.37,8.50,8.00,7.79,8.48,36.67,3.00,11.35,47.20,10.00,86.67,11.38,0.00,0.00,0.00,0.00,59.47,83.33,15.00,15.35,78.40,42.22,115.56,32.71,21.97,0.00,0.00,4.81
1,156.09,97.14,113.33,93.25,12.37,8.50,8.00,7.78,8.48,36.67,3.00,11.35,46.36,10.00,80.00,11.36,0.00,0.00,0.00,0.00,58.82,83.33,15.00,15.03,82.09,44.44,115.56,36.75,22.35,3.33,0.00,5.06
1,155.54,95.71,116.67,91.67,12.59,8.50,8.00,7.82,8.48,36.67,3.00,11.35,46.87,10.00,85.00,11.50,0.00,0.00,0.00,0.00,56.71,76.67,15.00,13.93,81.87,44.44,115.56,36.38,22.37,3.33,0.00,5.00
1,153.27,94.29,106.67,90.91,12.48,8.50,8.00,7.80,8.48,36.67,3.00,11.35,47.33,10.00,90.00,11.57,0.00,0.00,0.00,0.00,55.34,76.67,15.00,13.56,81.03,42.22,113.33,35.91,22.84,3.33,0.00,5.09
1,157.93,95.71,110.00,95.89,12.12,8.00,7.50,7.72,8.47,36.67,3.00,11.35,47.35,10.00,90.00,11.75,0.00,0.00,0.00,0.00,51.56,63.33,15.00,12.55,80.73,42.22,122.22,34.60,23.29,3.33,0.00,5.17
1,161.23,97.14,116.67,98.25,11.90,7.50,7.50,7.64,8.48,36.67,3.00,11.36,49.15,15.00,96.67,12.19,0.00,0.00,0.00,0.00,50.87,60.00,15.00,11.73,79.13,40.00,120.00,33.23,22.95,3.33,0.00,5.23
1,162.76,98.57,123.33,95.21,11.87,7.50,7.50,7.59,8.48,36.67,3.00,11.36,49.62,15.00,96.67,11.99,0.00,0.00,0.00,0.00,51.87,63.33,20.00,12.16,78.15,40.00,115.56,32.73,22.70,3.33,0.00,5.14
1,159.56,97.14,120.00,95.97,11.80,7.00,7.50,7.57,8.48,36.67,3.00,11.36,49.31,15.00,98.33,12.26,0.00,0.00,0.00,0.00,51.38,56.67,15.00,11.73,78.97,40.00,117.78,32.99,22.97,3.33,0.00,5.20
1,158.38,97.14,120.00,92.71,10.30,6.50,6.50,5.66,7.00,30.00,2.00,8.78,47.68,15.00,95.00,11.63,0.00,0.00,0.00,0.00,49.72,53.33,10.00,10.43,78.76,40.00,113.33,32.96,22.53,3.33,0.00,5.06
1,157.77,98.57,123.33,90.76,9.67,6.00,6.00,4.68,5.41,20.00,2.00,6.80,47.70,15.00,91.67,11.99,0.00,0.00,0.00,0.00,48.03,43.33,5.00,9.62,73.57,35.56,106.67,29.56,22.67,3.33,0.00,5.19
1,162.31,97.14,130.00,96.05,9.22,6.00,5.00,4.45,5.23,20.00,2.00,6.68,48.01,15.00,90.00,12.27,0.00,0.00,0.00,0.00,48.06,43.33,5.00,9.48,72.54,33.33,106.67,28.40,22.44,3.33,0.00,5.08
1,163.01,97.14,133.33,96.23,8.92,5.00,4.50,4.32,5.23,20.00,2.00,6.68,48.89,15.00,95.00,12.53,0.00,0.00,0.00,0.00,48.69,43.33,5.00,9.64,69.40,28.89,102.22,26.21,21.47,3.33,0.00,4.84
1,164.72,98.57,133.33,97.86,9.65,5.00,4.50,4.66,7.44,30.00,3.00,10.14,49.65,15.00,95.00,12.93,0.00,0.00,0.00,0.00,50.32,46.67,5.00,10.41,68.61,28.89,95.56,25.95,21.57,3.33,0.00,4.88
1,163.57,98.57,130.00,100.55,10.45,5.50,5.00,6.63,7.56,33.33,2.50,10.51,47.82,15.00,95.00,12.05,0.00,0.00,0.00,0.00,50.35,46.67,5.00,10.49,66.95,24.44,93.33,25.53,21.18,3.33,0.00,4.76
1,167.93,101.43,136.67,103.18,10.99,6.50,5.50,6.96,6.27,26.67,2.00,8.76,48.12,15.00,98.33,12.08,0.00,0.00,0.00,0.00,47.87,43.33,5.00,9.87,65.45,22.22,91.11,24.08,22.04,3.33,0.00,5.03
1,167.38,102.86,143.33,100.28,10.94,6.50,5.00,6.92,4.17,20.00,1.00,5.09,47.02,10.00,96.67,11.80,0.00,0.00,0.00,0.00,48.06,43.33,5.00,9.85,66.41,26.67,93.33,24.86,21.92,3.33,0.00,4.99
1,167.68,101.43,140.00,100.53,10.51,6.50,4.50,6.82,4.12,20.00,1.00,5.08,45.57,5.00,91.67,11.19,0.00,0.00,0.00,0.00,46.02,36.67,5.00,9.15,67.64,26.67,97.78,25.38,21.97,3.33,0.00,5.11
1,168.15,102.86,143.33,99.59,9.87,6.00,3.00,6.50,4.90,23.33,1.00,5.79,45.73,5.00,93.33,11.09,0.00,0.00,0.00,0.00,48.90,43.33,5.00,9.74,69.65,28.89,104.44,26.06,21.49,3.33,0.00,5.05
1,169.31,105.71,143.33,97.81,8.51,5.00,2.00,4.47,7.04,33.33,2.00,9.26,46.38,5.00,91.67,11.16,0.00,0.00,0.00,0.00,49.45,43.33,5.00,9.92,68.11,26.67,108.89,24.42,22.19,3.33,0.00,5.22
1,171.13,107.14,150.00,99.82,8.27,5.00,2.50,4.01,7.32,33.33,2.00,9.62,46.87,5.00,88.33,11.83,0.00,0.00,0.00,0.00,50.46,43.33,5.00,10.19,65.89,22.22,102.22,23.79,22.18,3.33,0.00,5.13
1,167.48,107.14,143.33,97.01,8.62,5.50,3.00,4.15,7.33,33.33,2.00,9.62,47.37,5.00,90.00,12.29,0.00,0.00,0.00,0.00,49.62,36.67,5.00,9.72,64.12,20.00,95.56,23.04,20.63,3.33,0.00,4.51
1,168.35,108.57,143.33,97.00,9.52,6.50,4.00,4.76,7.31,33.33,2.00,9.62,46.72,5.00,88.33,12.28,0.00,0.00,0.00,0.00,49.99,40.00,5.00,10.11,66.79,20.00,102.22,23.93,20.69,3.33,0.00,4.54
1,172.38,112.86,150.00,98.02,11.36,7.50,5.50,7.11,7.31,33.33,2.00,9.62,45.12,5.00,86.67,11.55,0.00,0.00,0.00,0.00,49.23,33.33,5.00,9.71,63.83,20.00,102.22,21.65,20.08,0.00,0.00,4.15
1,172.27,112.86,153.33,97.87,12.91,8.50,6.50,9.51,7.32,33.33,2.00,9.62,45.21,5.00,83.33,11.78,0.00,0.00,0.00,0.00,48.08,33.33,5.00,9.29,61.78,17.78,100.00,20.18,20.54,0.00,0.00,4.37
1,173.59,110.00,160.00,99.15,12.88,8.50,6.50,9.52,7.35,33.33,2.00,9.62,46.05,5.00,83.33,12.04,0.00,0.00,0.00,0.00,47.88,26.67,5.00,9.51,65.58,20.00,108.89,21.23,20.48,0.00,0.00,4.32
1,172.03,110.00,160.00,95.93,12.94,8.50,6.50,9.52,7.35,33.33,2.00,9.62,46.43,5.00,83.33,12.29,0.00,0.00,0.00,0.00,46.99,26.67,5.00,9.34,62.12,17.78,102.22,19.66,20.30,0.00,0.00,4.23
1,167.07,110.00,153.33,91.32,12.84,8.50,6.50,9.49,7.34,33.33,2.00,9.62,44.57,0.00,80.00,11.51,0.00,0.00,0.00,0.00,46.80,26.67,5.00,9.35,61.66,17.78,102.22,19.33,19.67,0.00,0.00,4.06
1,167.76,108.57,153.33,92.46,12.65,8.50,6.50,9.47,7.35,33.33,2.00,9.62,45.09,0.00,78.33,11.99,0.00,0.00,0.00,0.00,43.35,16.67,0.00,8.17,61.55,17.78,106.67,18.95,19.24,0.00,0.00,3.69
1,165.95,110.00,153.33,89.30,12.37,8.50,6.50,9.41,7.37,33.33,2.00,9.62,44.74,0.00,80.00,11.67,0.00,0.00,0.00,0.00,41.93,16.67,0.00,7.94,58.97,15.56,100.00,18.24,19.53,0.00,0.00,3.86
1,171.90,114.29,163.33,93.52,12.05,8.00,6.50,9.32,7.40,33.33,2.00,9.62,46.03,5.00,83.33,12.57,0.00,0.00,0.00,0.00,40.33,16.67,0.00,7.53,57.51,15.56,97.78,17.93,19.95,0.00,0.00,4.04
1,171.19,112.86,156.67,94.17,11.68,7.50,6.50,9.22,7.40,33.33,2.00,9.62,48.24,5.00,88.33,13.25,0.00,0.00,0.00,0.00,39.53,16.67,0.00,7.27,59.17,17.78,100.00,18.90,20.46,0.00,0.00,4.17
1,169.63,117.14,153.33,89.75,11.94,7.50,6.50,9.28,7.41,33.33,2.00,9.62,49.48,10.00,93.33,13.73,0.00,0.00,0.00,0.00,39.69,16.67,0.00,6.96,58.37,17.78,95.56,18.45,20.81,3.33,0.00,4.32
1,173.64,121.43,163.33,92.06,11.93,7.50,6.50,9.28,7.41,33.33,2.00,9.62,48.88,10.00,91.67,13.55,0.00,0.00,0.00,0.00,38.37,16.67,0.00,6.71,58.77,20.00,95.56,18.73,21.30,3.33,0.00,4.36
1,172.83,120.00,166.67,92.62,11.78,7.50,6.50,9.25,5.47,23.33,1.00,6.40,47.08,10.00,88.33,12.93,0.00,0.00,0.00,0.00,37.35,13.33,0.00,6.13,61.25,22.22,102.22,19.96,21.58,3.33,0.00,4.57
1,174.95,121.43,166.67,94.32,10.25,7.00,5.50,7.05,4.14,16.67,1.00,4.72,46.93,10.00,86.67,13.00,0.00,0.00,0.00,0.00,37.54,13.33,0.00,6.12,61.30,22.22,104.44,19.86,22.08,3.33,0.00,4.76
1,173.13,118.57,163.33,94.84,9.50,5.50,4.50,6.41,3.76,13.33,1.00,4.55,46.64,10.00,85.00,12.85,0.00,0.00,0.00,0.00,37.71,13.33,0.00,6.15,61.66,22.22,104.44,19.92,21.40,3.33,0.00,4.63
1,172.53,115.71,156.67,97.19,9.32,5.00,4.50,6.34,3.75,13.33,1.00,4.55,45.83,10.00,85.00,12.43,0.00,0.00,0.00,0.00,37.71,13.33,0.00,6.26,59.75,17.78,100.00,18.82,21.19,3.33,0.00,4.42
1,169.08,112.86,153.33,94.12,9.48,5.00,4.50,6.37,5.25,20.00,2.00,7.19,46.12,10.00,86.67,12.28,0.00,0.00,0.00,0.00,38.06,13.33,0.00,6.51,59.77,17.78,102.22,18.21,20.67,3.33,0.00,4.15
1,168.52,114.29,156.67,91.45,11.20,6.00,5.50,8.44,6.29,30.00,2.00,8.66,45.24,10.00,86.67,11.92,0.00,0.00,0.00,0.00,36.72,10.00,0.00,6.21,57.96,13.33,97.78,16.90,20.49,3.33,0.00,4.09
1,164.49,107.14,156.67,90.37,11.35,5.50,5.50,8.59,4.31,20.00,1.00,6.61,43.98,10.00,86.67,11.29,0.00,0.00,0.00,0.00,35.34,6.67,0.00,5.53,58.80,13.33,97.78,17.07,20.38,3.33,0.00,4.03
1,164.74,105.71,153.33,90.99,11.28,5.50,5.00,8.60,3.45,16.67,1.00,4.20,42.59,10.00,85.00,10.62,0.00,0.00,0.00,0.00,35.87,6.67,0.00,5.68,60.07,15.56,100.00,17.63,20.41,3.33,0.00,4.08
1,166.82,107.14,163.33,90.21,11.21,5.00,4.50,8.49,3.42,16.67,1.00,4.19,40.85,10.00,80.00,9.75,0.00,0.00,0.00,0.00,35.14,6.67,0.00,5.56,59.68,17.78,97.78,17.56,21.14,3.33,0.00,4.26
1,167.89,105.71,166.67,90.85,10.54,4.50,3.50,8.01,3.53,16.67,1.00,4.20,41.53,10.00,81.67,9.75,0.00,0.00,0.00,0.00,34.96,3.33,0.00,5.35,60.71,22.22,97.78,18.56,21.62,6.67,0.00,4.47
1,165.25,102.86,163.33,91.02,8.99,4.00,3.00,5.88,5.09,23.33,1.50,6.23,42.65,10.00,86.67,10.06,0.00,0.00,0.00,0.00,33.92,3.33,0.00,4.98,58.01,17.78,95.56,16.58,21.01,6.67,0.00,4.30
1,161.26,100.00,150.00,88.06,7.42,3.50,2.00,3.39,7.33,30.00,2.50,9.91,42.06,10.00,88.33,9.90,0.00,0.00,0.00,0.00,33.43,3.33,0.00,4.84,59.60,17.78,97.78,17.45,21.91,6.67,0.00,4.51
1,159.02,101.43,143.33,88.79,7.40,3.50,2.00,3.36,8.67,36.67,3.00,12.06,41.35,10.00,85.00,9.46,0.00,0.00,0.00,0.00,34.16,3.33,0.00,4.81,57.76,15.56,93.33,17.29,22.47,6.67,0.00,4.73
1,159.44,101.43,150.00,86.57,8.03,4.50,3.00,3.52,8.67,36.67,3.00,12.07,39.94,10.00,80.00,8.89,0.00,0.00,0.00,0.00,34.42,3.33,0.00,4.98,57.73,15.56,93.33,17.12,22.61,6.67,0.00,4.80
1,165.62,104.29,160.00,93.84,9.45,5.50,4.50,5.30,8.67,36.67,3.00,12.07,40.23,10.00,80.00,8.77,0.00,0.00,0.00,0.00,36.22,10.00,5.00,5.79,59.55,15.56,100.00,17.73,22.59,6.67,0.00,4.81
1,163.70,101.43,156.67,94.43,10.19,6.50,4.50,5.92,8.66,36.67,3.00,12.07,40.43,10.00,83.33,8.58,0.00,0.00,0.00,0.00,37.95,10.00,5.00,6.21,61.70,17.78,102.22,19.07,23.26,6.67,0.00,4.92
1,165.04,101.43,156.67,94.05,10.41,6.50,4.50,5.97,8.64,36.67,3.00,12.07,41.93,10.00,86.67,9.13,0.00,0.00,0.00,0.00,38.73,10.00,5.00,6.26,62.76,17.78,104.44,19.48,23.17,6.67,0.00,5.05
1,167.47,100.00,163.33,96.39,10.31,6.50,4.50,5.96,8.65,36.67,3.00,12.07,39.69,5.00,81.67,8.15,0.00,0.00,0.00,0.00,41.01,16.67,5.00,7.04,63.49,20.00,104.44,19.53,23.43,6.67,0.00,5.11
1,163.62,97.14,160.00,93.47,10.41,6.50,4.50,5.97,8.62,36.67,3.00,12.07,38.31,5.00,78.33,7.72,0.00,0.00,0.00,0.00,42.30,16.67,5.00,7.24,62.65,20.00,106.67,18.73,22.94,6.67,0.00,4.91
1,164.99,95.71,170.00,94.46,10.38,6.50,4.50,5.96,8.62,36.67,3.00,12.07,35.89,0.00,75.00,6.01,0.00,0.00,0.00,0.00,42.87,16.67,5.00,7.46,64.50,22.22,113.33,19.55,22.31,3.33,0.00,4.61
1,164.55,90.00,160.00,100.49,10.40,6.50,4.50,5.96,8.62,36.67,3.00,12.07,36.64,0.00,75.00,6.32,0.00,0.00,0.00,0.00,42.67,16.67,5.00,7.56,64.77,20.00,115.56,19.31,22.60,3.33,0.00,4.69
1,164.52,94.29,153.33,98.00,10.58,6.50,4.50,5.99,8.62,36.67,3.00,12.07,37.05,0.00,78.33,6.39,0.00,0.00,0.00,0.00,42.31,16.67,5.00,7.48,64.62,17.78,117.78,18.84,22.08,3.33,0.00,4.48
1,163.92,92.86,153.33,99.53,10.61,6.50,4.50,6.00,8.62,36.67,3.00,12.07,35.83,0.00,73.33,6.05,0.00,0.00,0.00,0.00,41.58,16.67,5.00,7.45,62.60,17.78,108.89,18.32,21.52,3.33,0.00,4.30
1,164.11,91.43,156.67,98.22,10.26,6.00,4.50,5.91,8.62,36.67,3.00,12.07,35.62,0.00,73.33,5.98,0.00,0.00,0.00,0.00,41.89,16.67,5.00,7.44,62.79,17.78,111.11,18.06,20.89,3.33,0.00,4.14
1,165.86,94.29,160.00,97.54,10.28,6.00,4.50,5.91,8.63,36.67,3.00,12.07,35.55,0.00,73.33,5.98,0.00,0.00,0.00,0.00,42.19,16.67,5.00,7.42,62.83,17.78,111.11,18.12,20.49,3.33,0.00,4.04
1,170.40,98.57,166.67,100.43,10.40,6.50,4.50,5.97,8.20,33.33,2.50,12.07,35.03,0.00,73.33,5.92,0.00,0.00,0.00,0.00,41.84,16.67,5.00,7.18,62.08,17.78,104.44,18.38,21.14,3.33,0.00,4.10
1,174.86,100.00,170.00,105.18,9.22,6.00,3.50,4.32,6.11,23.33,2.00,8.39,36.28,0.00,76.67,6.50,0.00,0.00,0.00,0.00,41.42,16.67,5.00,7.24,61.95,20.00,104.44,18.66,20.72,3.33,0.00,4.06
1,175.94,102.86,166.67,104.16,8.68,5.50,3.50,3.75,5.73,20.00,2.00,7.89,37.25,0.00,81.67,6.75,0.00,0.00,0.00,0.00,40.70,16.67,5.00,7.15,61.06,20.00,102.22,18.31,21.04,3.33,0.00,4.12
1,177.49,105.71,166.67,105.43,8.89,5.50,4.00,3.85,5.72,20.00,2.00,7.89,37.55,0.00,81.67,6.90,0.00,0.00,0.00,0.00,39.91,16.67,5.00,6.99,59.04,17.78,95.56,17.62,20.83,3.33,0.00,4.02
1,172.79,104.29,153.33,103.15,8.78,5.50,4.00,3.83,5.77,20.00,2.00,7.89,37.97,0.00,81.67,6.95,0.00,0.00,0.00,0.00,40.20,16.67,5.00,7.04,61.46,20.00,100.00,19.24,21.01,3.33,0.00,4.02
1,168.94,100.00,146.67,101.86,8.98,5.50,4.50,3.85,7.22,26.67,2.50,9.82,37.85,0.00,80.00,7.13,0.00,0.00,0.00,0.00,40.40,16.67,5.00,7.09,61.18,20.00,97.78,18.62,20.64,0.00,0.00,3.98
1,170.17,101.43,146.67,102.51,10.37,6.50,5.00,6.04,6.93,26.67,2.00,9.28,37.31,0.00,78.33,6.89,0.00,0.00,0.00,0.00,40.97,20.00,5.00,7.13,59.43,15.56,95.56,18.23,20.13,0.00,0.00,3.65
1,171.37,100.00,150.00,103.46,10.36,6.50,5.00,6.05,5.08,20.00,1.00,5.72,37.09,0.00,75.00,6.93,0.00,0.00,0.00,0.00,42.96,23.33,5.00,7.97,58.38,15.56,95.56,17.43,19.22,0.00,0.00,3.38
1,172.48,102.86,156.67,104.77,10.67,7.00,5.50,6.17,3.48,13.33,0.50,3.34,37.77,0.00,76.67,7.18,0.00,0.00,0.00,0.00,42.65,20.00,5.00,7.89,58.91,15.56,97.78,17.51,18.13,0.00,0.00,3.02
1,169.33,100.00,153.33,102.54,10.71,7.00,5.00,6.19,3.39,13.33,0.50,3.31,38.15,0.00,76.67,7.41,0.00,0.00,0.00,0.00,42.55,20.00,5.00,7.95,58.58,15.56,93.33,17.07,18.29,0.00,0.00,3.08
1,164.40,97.14,146.67,97.98,9.89,6.00,3.50,5.87,4.40,16.67,1.00,4.04,38.00,0.00,78.33,7.37,0.00,0.00,0.00,0.00,41.61,16.67,0.00,7.24,57.69,15.56,88.89,17.03,17.74,0.00,0.00,2.93
1,162.72,95.71,140.00,96.30,8.72,5.00,3.00,3.83,6.42,23.33,2.00,8.14,37.27,0.00,76.67,7.12,0.00,0.00,0.00,0.00,40.30,16.67,0.00,6.95,54.93,13.33,84.44,15.39,17.42,0.00,0.00,2.83
1,162.42,97.14,136.67,96.93,8.90,5.50,4.00,4.01,7.11,26.67,2.00,9.06,36.90,0.00,73.33,7.31,0.00,0.00,0.00,0.00,40.26,16.67,0.00,6.90,54.45,13.33,80.00,15.26,17.03,0.00,0.00,2.61
1,156.86,95.71,130.00,90.67,9.34,6.00,4.50,4.16,7.12,26.67,2.00,9.06,36.96,0.00,71.67,7.45,0.00,0.00,0.00,0.00,40.24,13.33,0.00,6.76,56.46,13.33,82.22,17.32,16.92,0.00,0.00,2.64
1,155.87,95.71,123.33,91.27,9.98,7.00,5.50,4.54,7.11,26.67,2.00,9.06,36.56,0.00,70.00,7.26,0.00,0.00,0.00,0.00,39.20,10.00,0.00,6.60,57.40,15.56,84.44,17.30,16.83,0.00,0.00,2.53
1,157.83,97.14,120.00,93.54,11.87,8.00,7.00,6.91,7.11,26.67,2.00,9.06,35.85,0.00,66.67,7.15,0.00,0.00,0.00,0.00,39.36,13.33,0.00,6.69,58.06,15.56,80.00,19.43,16.76,0.00,0.00,2.70
1,153.84,97.14,120.00,87.97,11.80,8.00,7.00,6.92,7.11,26.67,2.00,9.06,36.05,0.00,68.33,7.05,0.00,0.00,0.00,0.00,39.97,13.33,0.00,6.75,56.47,15.56,73.33,19.11,16.68,0.00,0.00,2.73
1,154.22,91.43,123.33,89.73,11.83,8.00,7.00,6.92,7.12,26.67,2.00,9.06,35.14,0.00,61.67,6.94,0.00,0.00,0.00,0.00,38.99,13.33,0.00,6.55,57.26,17.78,71.11,19.31,16.47,0.00,0.00,2.71
1,155.75,92.86,126.67,90.16,11.81,8.00,7.00,6.91,7.12,26.67,2.00,9.06,35.39,0.00,61.67,7.02,0.00,0.00,0.00,0.00,39.33,13.33,0.00,6.74,58.64,20.00,75.56,20.57,16.82,0.00,0.00,2.83
1,154.77,92.86,126.67,88.25,11.83,8.00,7.00,6.91,7.12,26.67,2.00,9.06,34.49,0.00,58.33,6.81,0.00,0.00,0.00,0.00,39.49,13.33,0.00,6.70,60.29,20.00,80.00,21.52,16.87,0.00,0.00,2.72
1,150.38,91.43,116.67,83.68,11.63,8.00,7.00,6.86,7.11,26.67,2.00,9.06,34.83,0.00,56.67,7.09,0.00,0.00,0.00,0.00,38.43,13.33,0.00,6.53,61.56,22.22,82.22,21.93,17.13,0.00,0.00,2.78
1,143.48,87.14,113.33,79.36,11.43,8.00,7.00,6.82,7.11,26.67,2.00,9.06,35.38,0.00,58.33,7.26,0.00,0.00,0.00,0.00,38.30,13.33,0.00,6.57,62.15,22.22,88.89,22.23,16.48,0.00,0.00,2.67
1,139.67,85.71,106.67,77.21,11.18,7.50,7.00,6.72,7.12,26.67,2.00,9.06,33.25,0.00,53.33,6.48,0.00,0.00,0.00,0.00,39.61,16.67,0.00,6.80,61.48,20.00,86.67,21.71,17.04,0.00,0.00,2.85
1,138.62,84.29,110.00,77.90,11.02,7.50,7.00,6.67,7.12,26.67,2.00,9.06,32.77,0.00,48.33,6.38,0.00,0.00,0.00,0.00,40.61,16.67,0.00,6.94,60.93,20.00,86.67,21.55,16.72,0.00,0.00,2.85
1,141.12,85.71,113.33,78.90,10.74,7.00,6.50,6.54,7.12,26.67,2.00,9.06,31.81,0.00,45.00,6.33,0.00,0.00,0.00,0.00,40.71,16.67,0.00,6.99,60.77,20.00,86.67,21.47,16.34,0.00,0.00,2.70
1,139.47,82.86,106.67,80.37,10.64,7.00,6.50,6.51,7.08,26.67,2.00,9.06,32.36,0.00,45.00,6.67,0.00,0.00,0.00,0.00,41.03,16.67,0.00,6.94,60.71,20.00,91.11,20.99,15.83,0.00,0.00,2.62
1,141.20,82.86,110.00,81.72,10.57,6.50,6.00,6.47,5.66,20.00,1.50,7.30,32.41,0.00,46.67,6.44,0.00,0.00,0.00,0.00,41.56,16.67,0.00,7.20,61.63,20.00,93.33,20.92,15.49,0.00,0.00,2.52
1,145.15,85.71,113.33,86.22,8.73,5.50,5.00,4.18,4.43,13.33,1.50,5.90,32.60,0.00,50.00,6.38,0.00,0.00,0.00,0.00,40.77,16.67,0.00,6.96,62.54,22.22,93.33,21.90,16.30,0.00,0.00,2.80
1,147.88,91.43,123.33,86.42,8.50,4.50,4.50,4.09,4.18,13.33,1.50,5.76,33.32,0.00,53.33,6.51,0.00,0.00,0.00,0.00,38.86,13.33,0.00,6.32,63.02,24.44,95.56,22.27,16.06,0.00,0.00,2.82
1,144.54,90.00,116.67,81.65,8.20,4.00,4.00,3.91,4.17,13.33,1.50,5.76,32.87,0.00,51.67,6.41,0.00,0.00,0.00,0.00,37.37,13.33,0.00,6.04,63.26,24.44,95.56,22.85,16.62,0.00,0.00,3.05
1,146.16,90.00,113.33,84.20,8.14,4.00,4.50,3.88,5.47,20.00,2.00,6.94,32.35,0.00,51.67,6.18,0.00,0.00,0.00,0.00,36.25,13.33,0.00,5.72,63.59,24.44,100.00,23.07,16.59,0.00,0.00,3.12
1,150.12,94.29,116.67,85.58,9.89,5.00,5.50,5.87,7.09,26.67,2.50,10.35,33.02,0.00,50.00,6.51,0.00,0.00,0.00,0.00,35.84,13.33,0.00,5.63,63.15,24.44,100.00,22.77,16.77,0.00,0.00,3.11
1,148.47,95.71,116.67,83.23,10.34,6.00,6.00,6.47,5.60,23.33,1.50,8.67,33.57,0.00,48.33,7.27,0.00,0.00,0.00,0.00,36.10,13.33,0.00,5.55,64.06,26.67,97.78,23.37,16.98,0.00,0.00,3.23
1,144.39,91.43,113.33,80.25,10.01,5.50,5.50,6.32,3.84,16.67,1.00,5.01,33.23,0.00,51.67,6.84,0.00,0.00,0.00,0.00,36.90,13.33,0.00,5.91,67.03,31.11,104.44,24.46,17.02,0.00,0.00,3.50
1,145.82,90.00,113.33,82.40,9.89,5.00,5.00,6.24,3.80,16.67,1.00,5.00,32.95,0.00,55.00,6.72,0.00,0.00,0.00,0.00,36.40,16.67,0.00,5.83,66.14,28.89,102.22,24.22,16.81,0.00,0.00,3.50
1,147.27,92.86,120.00,84.00,9.53,5.00,4.00,5.93,3.80,16.67,1.00,5.00,33.74,0.00,56.67,6.91,0.00,0.00,0.00,0.00,37.03,16.67,0.00,5.92,63.66,28.89,97.78,22.09,16.67,0.00,0.00,3.50
1,142.64,90.00,113.33,82.41,7.93,4.00,3.00,3.83,4.97,23.33,1.50,6.19,33.23,0.00,58.33,6.73,0.00,0.00,0.00,0.00,35.36,13.33,0.00,5.33,61.49,24.44,95.56,20.59,16.65,0.00,0.00,3.27
1,145.15,90.00,116.67,83.99,8.13,4.50,3.50,3.73,7.06,30.00,2.50,9.86,33.10,0.00,56.67,6.64,0.00,0.00,0.00,0.00,35.38,13.33,0.00,5.29,71.28,33.33,104.44,25.79,16.81,0.00,0.00,3.23
1,145.42,91.43,116.67,82.67,8.46,5.00,4.00,3.90,7.19,30.00,2.50,9.91,33.09,0.00,58.33,6.45,0.00,0.00,0.00,0.00,35.73,13.33,0.00,5.25,74.06,33.33,106.67,31.48,17.23,0.00,0.00,3.39
1,144.63,94.29,123.33,78.78,8.23,5.00,4.00,3.84,7.19,30.00,2.50,9.91,34.36,0.00,63.33,7.06,0.00,0.00,0.00,0.00,35.85,13.33,0.00,5.21,78.19,37.78,106.67,35.29,17.67,0.00,0.00,3.44
1,146.43,97.14,126.67,79.07,9.10,5.50,4.50,4.12,7.20,30.00,2.50,9.91,35.99,0.00,70.00,7.87,0.00,0.00,0.00,0.00,36.43,16.67,0.00,5.37,78.57,42.22,104.44,35.92,18.69,0.00,0.00,3.82
1,149.97,98.57,130.00,82.40,10.76,6.50,6.00,6.35,7.20,30.00,2.50,9.91,37.07,0.00,73.33,8.06,0.00,0.00,0.00,0.00,37.80,16.67,0.00,5.59,79.27,44.44,106.67,36.47,19.07,0.00,0.00,3.94
1,150.51,95.71,126.67,83.25,11.50,7.50,6.00,7.00,7.19,30.00,2.50,9.91,38.29,0.00,75.00,8.58,0.00,0.00,0.00,0.00,39.86,26.67,0.00,6.29,85.22,46.67,108.89,43.50,20.87,3.33,0.00,5.09
1,154.63,97.14,136.67,84.49,11.36,7.50,6.00,6.97,7.20,30.00,2.50,9.91,40.53,0.00,80.00,9.29,0.00,0.00,0.00,0.00,38.30,23.33,0.00,6.02,87.01,51.11,108.89,45.47,20.87,3.33,0.00,5.22
1,154.64,97.14,136.67,82.73,11.26,7.50,6.00,6.96,7.20,30.00,2.50,9.91,41.67,0.00,85.00,9.67,0.00,0.00,0.00,0.00,39.42,26.67,0.00,6.20,89.84,51.11,117.78,46.47,20.58,3.33,0.00,5.03
1,152.39,95.71,133.33,81.05,11.04,7.50,6.00,6.93,7.20,30.00,2.50,9.91,42.05,0.00,85.00,9.85,0.00,0.00,0.00,0.00,40.15,26.67,0.00,6.49,93.00,57.78,124.44,48.37,21.18,3.33,0.00,5.39
1,159.49,101.43,150.00,83.03,11.05,7.50,6.00,6.90,7.20,30.00,2.50,9.91,41.88,0.00,88.33,9.42,0.00,0.00,0.00,0.00,41.46,30.00,0.00,6.68,97.34,62.22,126.67,52.64,21.79,3.33,0.00,5.59
1,164.04,105.71,163.33,84.45,10.95,7.50,6.00,6.87,7.20,30.00,2.50,9.91,41.18,0.00,86.67,9.39,0.00,0.00,0.00,0.00,41.20,33.33,0.00,6.63,97.73,64.44,124.44,53.32,21.70,3.33,0.00,5.63
1,160.63,104.29,160.00,82.15,11.19,7.50,6.00,6.92,7.20,30.00,2.50,9.91,41.22,0.00,85.00,9.52,0.00,0.00,0.00,0.00,41.92,33.33,0.00,6.74,96.62,62.22,120.00,53.63,21.76,3.33,0.00,5.65
1,156.25,100.00,146.67,78.92,11.02,7.50,6.00,6.88,7.20,30.00,2.50,9.91,40.35,0.00,80.00,9.26,0.00,0.00,0.00,0.00,42.28,33.33,0.00,6.84,93.76,57.78,115.56,50.73,21.67,3.33,0.00,5.46
1,156.50,98.57,146.67,79.32,10.87,7.50,6.00,6.86,7.21,30.00,2.50,9.91,41.23,0.00,85.00,9.69,0.00,0.00,0.00,0.00,41.19,30.00,0.00,6.55,91.98,57.78,111.11,50.07,21.40,3.33,0.00,5.31
1,149.94,92.86,140.00,74.74,10.54,7.00,5.50,6.79,7.21,30.00,2.50,9.91,40.48,0.00,85.00,9.47,0.00,0.00,0.00,0.00,42.39,30.00,0.00,6.86,89.75,57.78,104.44,49.28,21.07,3.33,0.00,5.23
1,149.45,94.29,140.00,74.35,9.35,6.50,4.50,6.13,4.98,20.00,1.50,6.45,42.37,0.00,90.00,9.84,0.00,0.00,0.00,0.00,44.28,33.33,0.00,7.44,90.32,57.78,102.22,49.41,21.32,3.33,0.00,5.21
0,148.96,92.86,136.67,75.73,8.48,6.00,4.00,4.22,3.85,13.33,1.50,4.92,42.79,0.00,95.00,9.71,0.00,0.00,0.00,0.00,45.05,36.67,0.00,7.83,88.08,55.56,97.78,48.55,21.47,3.33,0.00,5.17
0,144.70,87.14,130.00,73.09,8.53,5.50,4.00,4.19,3.84,13.33,1.50,4.92,42.16,0.00,90.00,9.50,0.00,0.00,0.00,0.00,43.15,33.33,0.00,7.39,84.28,51.11,91.11,46.88,20.96,3.33,0.00,4.87
0,145.42,87.14,130.00,72.76,8.52,5.50,3.50,4.20,3.85,13.33,1.50,4.92,41.68,0.00,85.00,9.31,0.00,0.00,0.00,0.00,42.05,30.00,0.00,7.15,82.47,51.11,86.67,46.05,21.11,3.33,0.00,4.89
0,143.27,87.14,123.33,69.76,8.28,5.50,3.50,4.15,5.79,23.33,2.50,8.13,41.93,0.00,88.33,9.18,0.00,0.00,0.00,0.00,41.80,30.00,0.00,7.08,82.11,51.11,84.44,45.74,20.86,3.33,0.00,4.79
0,143.84,87.14,126.67,69.97,9.61,5.50,4.00,5.91,5.58,23.33,2.00,7.80,42.07,0.00,88.33,9.36,0.00,0.00,0.00,0.00,42.07,30.00,0.00,7.20,80.72,51.11,80.00,45.34,20.64,3.33,0.00,4.65
0,135.85,82.86,113.33,65.06,9.51,5.50,3.50,5.82,3.44,13.33,1.00,4.23,41.53,0.00,88.33,9.33,0.00,0.00,0.00,0.00,40.42,30.00,0.00,7.01,72.50,44.44,71.11,39.80,20.44,3.33,0.00,4.58
0,133.19,82.86,110.00,63.38,9.26,5.50,3.00,5.72,3.15,13.33,1.00,3.87,41.32,0.00,86.67,9.40,0.00,0.00,0.00,0.00,40.01,30.00,0.00,6.90,63.16,37.78,64.44,31.44,19.88,3.33,0.00,4.43
0,127.33,78.57,100.00,58.85,9.58,6.00,3.50,5.86,3.14,13.33,1.00,3.87,40.65,0.00,83.33,9.24,0.00,0.00,0.00,0.00,38.54,30.00,0.00,6.72,57.62,33.33,60.00,26.84,19.72,3.33,0.00,4.44
0,126.95,75.71,96.67,59.52,9.68,6.50,3.50,5.91,4.17,20.00,1.00,4.39,39.24,0.00,80.00,8.29,0.00,0.00,0.00,0.00,36.46,26.67,0.00,6.26,53.67,26.67,55.56,24.35,18.59,3.33,0.00,3.99
0,128.72,80.00,103.33,60.09,8.52,5.50,2.00,5.22,6.55,30.00,2.00,7.22,39.01,0.00,80.00,8.20,0.00,0.00,0.00,0.00,35.76,26.67,0.00,6.12,52.30,26.67,51.11,23.85,18.14,3.33,0.00,3.83
0,127.50,80.00,100.00,58.82,7.25,5.00,2.00,2.95,7.42,33.33,2.50,9.69,37.86,0.00,78.33,7.40,0.00,0.00,0.00,0.00,32.63,16.67,0.00,5.17,46.23,22.22,44.44,18.17,16.52,0.00,0.00,2.89
0,120.97,78.57,83.33,55.11,7.64,5.50,3.00,3.17,7.44,33.33,2.50,9.69,35.72,0.00,75.00,6.80,0.00,0.00,0.00,0.00,31.70,16.67,0.00,5.02,40.64,15.56,37.78,13.49,15.64,0.00,0.00,2.53
0,121.51,80.00,83.33,56.20,8.55,6.50,3.50,3.70,7.44,33.33,2.50,9.69,35.65,0.00,71.67,6.96,0.00,0.00,0.00,0.00,30.90,16.67,0.00,4.89,39.65,15.56,31.11,12.54,16.04,0.00,0.00,2.72
0,120.71,80.00,83.33,56.41,10.36,7.50,4.50,5.98,7.44,33.33,2.50,9.69,35.81,0.00,71.67,7.16,0.00,0.00,0.00,0.00,28.80,13.33,0.00,4.09,35.22,11.11,22.22,9.80,15.36,0.00,0.00,2.39
0,112.04,74.29,66.67,51.50,10.50,7.50,4.50,6.16,7.44,33.33,2.50,9.69,34.67,0.00,68.33,6.80,0.00,0.00,0.00,0.00,27.02,10.00,0.00,3.89,30.02,4.44,13.33,6.24,15.46,0.00,0.00,2.35
0,107.58,70.00,56.67,49.23,10.59,7.50,4.50,6.18,7.44,33.33,2.50,9.69,35.25,0.00,73.33,6.83,0.00,0.00,0.00,0.00,25.62,6.67,0.00,3.35,25.65,0.00,6.67,3.67,14.90,0.00,0.00,2.12
0,105.47,68.57,53.33,47.81,10.56,7.50,4.50,6.18,7.44,33.33,2.50,9.69,35.03,0.00,70.00,6.80,0.00,0.00,0.00,0.00,24.55,6.67,0.00,3.20,24.77,0.00,6.67,3.25,14.19,0.00,0.00,2.01
0,107.67,72.86,56.67,48.45,10.63,7.50,4.50,6.19,7.44,33.33,2.50,9.69,35.17,0.00,70.00,7.01,0.00,0.00,0.00,0.00,24.08,6.67,0.00,3.17,24.76,0.00,4.44,3.14,13.99,0.00,0.00,1.96
0,107.48,71.43,53.33,48.88,10.90,7.50,4.50,6.24,7.44,33.33,2.50,9.69,33.92,0.00,66.67,6.75,0.00,0.00,0.00,0.00,23.50,6.67,0.00,3.06,24.45,0.00,4.44,3.14,13.91,0.00,0.00,1.93
0,107.96,72.86,53.33,49.12,11.15,8.00,4.50,6.31,7.44,33.33,2.50,9.69,35.01,0.00,68.33,7.07,0.00,0.00,0.00,0.00,22.02,6.67,0.00,2.64,24.52,0.00,4.44,3.06,14.02,0.00,0.00,1.95
0,107.40,71.43,53.33,48.85,11.08,8.00,4.50,6.30,7.44,33.33,2.50,9.69,34.13,0.00,66.67,6.65,0.00,0.00,0.00,0.00,22.04,6.67,0.00,2.49,24.64,0.00,6.67,2.99,13.59,0.00,0.00,1.80
0,104.49,70.00,50.00,45.53,11.11,8.00,4.50,6.33,7.43,33.33,2.50,9.69,31.66,0.00,60.00,5.92,0.00,0.00,0.00,0.00,19.74,0.00,0.00,1.72,24.20,0.00,6.67,2.77,13.72,0.00,0.00,1.82
0,105.92,72.86,50.00,45.80,11.06,8.00,4.50,6.30,7.45,33.33,2.50,9.69,31.49,0.00,61.67,5.76,0.00,0.00,0.00,0.00,19.61,0.00,0.00,1.66,23.64,0.00,4.44,2.66,13.68,0.00,0.00,1.79
0,106.90,77.14,46.67,46.10,10.99,7.50,4.50,6.27,7.44,33.33,2.50,9.69,33.44,0.00,68.33,6.38,0.00,0.00,0.00,0.00,18.55,0.00,0.00,1.46,23.45,0.00,4.44,2.73,13.78,0.00,0.00,1.82
0,106.81,78.57,53.33,45.86,11.25,8.00,4.50,6.34,5.95,26.67,1.50,7.07,33.05,0.00,63.33,6.57,0.00,0.00,0.00,0.00,19.22,0.00,0.00,1.54,23.18,0.00,4.44,2.78,14.19,0.00,0.00,1.91
0,109.28,78.57,50.00,46.68,10.07,7.50,4.00,4.82,4.87,20.00,1.50,5.88,33.17,0.00,63.33,6.52,0.00,0.00,0.00,0.00,18.27,0.00,0.00,1.37,24.21,0.00,4.44,2.95,14.19,0.00,0.00,1.88
0,107.73,75.71,50.00,45.92,9.75,7.50,4.00,4.58,4.76,20.00,1.50,5.83,33.08,0.00,63.33,6.53,0.00,0.00,0.00,0.00,18.76,0.00,0.00,1.43,24.72,0.00,4.44,3.02,14.30,0.00,0.00,1.90
0,111.39,78.57,53.33,48.86,9.71,7.00,4.00,4.57,4.76,20.00,1.50,5.83,34.08,0.00,65.00,6.66,0.00,0.00,0.00,0.00,19.35,0.00,0.00,1.45,24.73,0.00,4.44,2.97,14.14,0.00,0.00,1.88
0,110.67,75.71,53.33,49.76,9.59,6.50,3.50,4.47,4.76,20.00,1.50,5.84,34.37,0.00,66.67,6.83,0.00,0.00,0.00,0.00,19.28,0.00,0.00,1.43,25.44,0.00,6.67,3.23,14.02,0.00,0.00,1.89
0,108.07,71.43,50.00,48.18,9.53,6.50,4.00,4.45,5.32,20.00,2.00,6.53,33.88,0.00,63.33,6.87,0.00,0.00,0.00,0.00,19.22,0.00,0.00,1.42,24.98,0.00,4.44,3.16,13.73,0.00,0.00,1.88
0,102.49,65.71,40.00,44.57,10.53,7.50,5.00,5.28,5.07,20.00,2.00,7.43,33.12,0.00,58.33,6.75,0.00,0.00,0.00,0.00,18.43,0.00,0.00,1.34,24.56,0.00,4.44,3.07,13.63,0.00,0.00,1.84
0,104.68,70.00,40.00,45.01,10.53,7.50,4.50,5.53,3.20,13.33,1.00,3.89,32.38,0.00,55.00,6.53,0.00,0.00,0.00,0.00,18.65,0.00,0.00,1.35,23.81,0.00,4.44,2.88,13.59,0.00,0.00,1.83
0,105.73,68.57,40.00,45.25,10.28,7.00,4.00,5.41,3.14,13.33,1.00,3.88,32.57,0.00,60.00,6.49,0.00,0.00,0.00,0.00,18.30,0.00,0.00,1.32,23.77,0.00,4.44,2.83,13.55,0.00,0.00,1.82
0,102.80,64.29,40.00,44.69,10.03,7.00,3.50,5.30,3.14,13.33,1.00,3.88,32.51,0.00,60.00,6.22,0.00,0.00,0.00,0.00,17.40,0.00,0.00,1.24,22.66,0.00,4.44,2.66,13.38,0.00,0.00,1.62
0,98.86,64.29,33.33,41.62,8.70,6.50,2.50,3.19,3.14,13.33,1.00,3.88,31.84,0.00,58.33,5.98,0.00,0.00,0.00,0.00,16.78,0.00,0.00,1.20,23.40,0.00,6.67,2.84,13.65,0.00,0.00,1.73
0,96.67,62.86,33.33,40.60,8.48,6.50,2.50,2.72,4.73,20.00,1.50,6.07,31.82,0.00,58.33,5.96,0.00,0.00,0.00,0.00,16.99,0.00,0.00,1.21,23.34,0.00,6.67,2.83,13.22,0.00,0.00,1.66
0,93.82,60.00,30.00,38.25,8.64,7.00,3.00,2.82,6.84,26.67,2.50,9.86,31.07,0.00,55.00,5.76,0.00,0.00,0.00,0.00,16.64,0.00,0.00,1.17,23.09,0.00,6.67,2.72,13.17,0.00,0.00,1.66
0,89.80,57.14,26.67,37.20,8.89,7.50,4.00,2.97,6.98,26.67,2.50,9.91,31.14,0.00,56.67,5.65,0.00,0.00,0.00,0.00,16.13,0.00,0.00,1.11,23.10,0.00,6.67,2.65,13.31,0.00,0.00,1.67
0,86.97,54.29,23.33,35.76,8.89,7.50,4.00,2.98,6.98,26.67,2.50,9.91,31.51,0.00,58.33,5.68,0.00,0.00,0.00,0.00,16.47,0.00,0.00,1.11,23.03,0.00,6.67,2.58,13.81,0.00,0.00,1.81
0,86.06,54.29,23.33,35.49,9.84,8.50,5.00,3.40,6.98,26.67,2.50,9.91,31.79,0.00,58.33,5.73,0.00,0.00,0.00,0.00,16.57,0.00,0.00,1.09,22.94,0.00,6.67,2.54,14.00,0.00,0.00,1.86
0,82.26,50.00,20.00,33.92,11.34,9.00,7.00,5.80,6.97,26.67,2.50,9.91,31.59,0.00,58.33,5.45,0.00,0.00,0.00,0.00,16.42,0.00,0.00,1.11,22.72,0.00,6.67,2.60,13.82,0.00,0.00,1.86
0,81.23,48.57,16.67,33.25,12.11,10.00,7.00,6.52,6.97,26.67,2.50,9.91,30.45,0.00,53.33,5.16,0.00,0.00,0.00,0.00,16.45,0.00,0.00,1.12,22.45,0.00,4.44,2.68,13.62,0.00,0.00,1.83
0,78.91,45.71,16.67,32.12,11.90,9.50,7.00,6.47,6.97,26.67,2.50,9.91,31.23,0.00,58.33,5.47,0.00,0.00,0.00,0.00,15.99,0.00,0.00,1.10,22.54,0.00,4.44,2.74,12.78,0.00,0.00,1.68
0,80.39,44.29,20.00,33.42,11.66,9.50,7.00,6.44,6.96,26.67,2.50,9.91,31.51,0.00,56.67,5.40,0.00,0.00,0.00,0.00,15.94,0.00,0.00,1.10,22.49,0.00,4.44,2.69,12.78,0.00,0.00,1.70
0,77.30,41.43,20.00,31.84,11.38,9.50,7.00,6.37,6.95,26.67,2.50,9.91,30.25,0.00,53.33,5.08,0.00,0.00,0.00,0.00,15.65,0.00,0.00,1.12,21.92,0.00,4.44,2.55,12.61,0.00,0.00,1.73
0,73.14,37.14,13.33,29.21,11.10,9.00,7.00,6.29,6.94,26.67,2.50,9.91,29.21,0.00,51.67,4.48,0.00,0.00,0.00,0.00,15.51,0.00,0.00,1.08,22.09,0.00,4.44,2.57,12.34,0.00,0.00,1.66
0,70.19,34.29,13.33,28.23,10.60,8.50,6.50,6.12,6.95,26.67,2.50,9.91,28.00,0.00,50.00,4.23,0.00,0.00,0.00,0.00,15.82,0.00,0.00,1.24,21.37,0.00,6.67,2.47,11.87,0.00,0.00,1.63
0,71.17,37.14,13.33,28.38,10.63,8.50,6.50,6.11,6.96,26.67,2.50,9.91,28.47,0.00,53.33,4.41,0.00,0.00,0.00,0.00,15.51,0.00,0.00,1.21,20.44,0.00,6.67,2.32,11.97,0.00,0.00,1.71
0,70.05,37.14,10.00,28.32,10.48,8.00,6.50,6.06,6.96,26.67,2.50,9.91,28.19,0.00,50.00,4.58,0.00,0.00,0.00,0.00,15.02,0.00,0.00,1.21,20.09,0.00,6.67,2.27,11.95,0.00,0.00,1.75
0,68.62,35.71,10.00,25.23,10.21,8.00,6.50,5.99,6.96,26.67,2.50,9.91,27.54,0.00,48.33,4.18,0.00,0.00,0.00,0.00,14.69,0.00,0.00,1.18,19.82,0.00,4.44,2.12,11.40,0.00,0.00,1.63
0,67.81,37.14,6.67,23.93,9.98,7.50,6.00,5.93,6.96,26.67,2.50,9.91,27.01,0.00,50.00,4.00,0.00,0.00,0.00,0.00,14.65,0.00,0.00,1.20,19.74,0.00,4.44,2.10,11.61,0.00,0.00,1.66
0,67.21,37.14,6.67,23.04,9.40,7.00,5.00,5.74,4.87,16.67,1.50,6.46,26.68,0.00,51.67,3.87,0.00,0.00,0.00,0.00,14.61,0.00,0.00,1.22,19.68,0.00,4.44,2.09,11.98,0.00,0.00,1.77
0,65.46,34.29,6.67,22.73,8.70,6.00,5.00,4.72,4.28,13.33,1.50,6.05,26.64,0.00,51.67,3.84,0.00,0.00,0.00,0.00,15.47,0.00,0.00,1.38,19.96,0.00,4.44,2.15,11.82,0.00,0.00,1.82
0,64.04,34.29,6.67,21.80,8.82,6.50,5.00,4.75,4.27,13.33,1.50,6.05,27.06,0.00,48.33,4.16,0.00,0.00,0.00,0.00,15.86,0.00,0.00,1.43,20.33,0.00,4.44,2.27,12.00,0.00,0.00,1.81
0,61.22,31.43,3.33,19.45,8.80,6.50,4.50,4.72,4.27,13.33,1.50,6.05,26.75,0.00,46.67,4.18,0.00,0.00,0.00,0.00,16.12,0.00,0.00,1.45,20.45,0.00,4.44,2.28,11.94,0.00,0.00,1.83
0,58.91,28.57,3.33,18.14,8.46,6.00,4.50,4.62,4.27,13.33,1.50,6.05,26.13,0.00,46.67,3.92,0.00,0.00,0.00,0.00,16.07,0.00,0.00,1.46,19.48,0.00,2.22,2.06,11.34,0.00,0.00,1.70
0,65.26,32.86,10.00,21.60,9.92,6.00,5.50,6.80,5.09,20.00,2.00,7.71,27.10,0.00,50.00,4.01,0.00,0.00,0.00,0.00,16.52,0.00,0.00,1.55,19.61,0.00,2.22,2.01,11.44,0.00,0.00,1.77
0,66.43,35.71,10.00,22.44,11.23,7.00,6.00,8.53,4.42,16.67,1.50,6.35,27.34,0.00,51.67,4.06,0.00,0.00,0.00,0.00,16.57,0.00,0.00,1.57,19.43,0.00,2.22,1.99,11.63,0.00,0.00,1.82
0,66.01,32.86,10.00,21.72,11.22,7.00,6.00,8.61,4.48,20.00,1.50,6.14,27.27,0.00,50.00,4.13,0.00,0.00,0.00,0.00,16.69,0.00,0.00,1.67,18.96,0.00,2.22,1.89,11.41,0.00,0.00,1.81
0,66.98,34.29,10.00,21.90,11.45,7.50,6.50,8.72,4.47,20.00,1.50,6.14,26.85,0.00,48.33,4.06,0.00,0.00,0.00,0.00,16.45,0.00,0.00,1.64,18.84,0.00,2.22,1.89,11.04,0.00,0.00,1.72
0,68.86,34.29,13.33,22.70,11.44,7.50,6.50,8.72,4.47,20.00,1.50,6.14,26.47,0.00,46.67,3.98,0.00,0.00,0.00,0.00,16.92,0.00,0.00,1.66,18.93,0.00,2.22,1.87,10.87,0.00,0.00,1.68
0,69.86,35.71,13.33,23.30,9.94,6.50,4.50,7.67,4.73,23.33,1.50,6.18,26.42,0.00,45.00,4.00,0.00,0.00,0.00,0.00,17.04,0.00,0.00,1.67,19.44,0.00,2.22,1.92,10.74,0.00,0.00,1.65
0,67.12,32.86,13.33,21.82,8.67,6.00,4.50,5.32,6.01,26.67,2.00,7.89,26.83,0.00,48.33,4.09,0.00,0.00,0.00,0.00,17.12,0.00,0.00,1.67,20.09,0.00,2.22,1.97,10.76,0.00,0.00,1.63
0,67.21,32.86,13.33,21.56,8.79,6.00,4.50,5.41,8.30,36.67,3.00,11.73,26.20,0.00,45.00,3.83,0.00,0.00,0.00,0.00,17.21,0.00,0.00,1.67,19.65,0.00,2.22,1.83,11.07,0.00,0.00,1.71
0,67.50,32.86,10.00,21.29,9.29,6.50,5.00,5.54,8.59,36.67,3.00,12.09,25.60,0.00,43.33,3.77,0.00,0.00,0.00,0.00,17.00,0.00,0.00,1.65,18.82,0.00,2.22,1.77,10.82,0.00,0.00,1.68
0,68.32,32.86,10.00,21.13,9.72,7.00,5.50,5.69,8.60,36.67,3.00,12.09,25.76,0.00,43.33,3.84,0.00,0.00,0.00,0.00,17.00,0.00,0.00,1.62,19.11,0.00,2.22,1.78,10.66,0.00,0.00,1.61
0,67.99,32.86,10.00,21.05,10.61,8.00,6.50,6.39,8.60,36.67,3.00,12.09,25.70,0.00,43.33,3.85,0.00,0.00,0.00,0.00,16.80,0.00,0.00,1.58,19.06,0.00,2.22,1.75,10.36,0.00,0.00,1.53
0,68.86,34.29,10.00,21.95,12.84,9.00,8.50,8.78,8.60,36.67,3.00,12.09,26.38,0.00,45.00,3.97,0.00,0.00,0.00,0.00,16.31,0.00,0.00,1.45,18.56,0.00,0.00,1.64,10.46,0.00,0.00,1.54
0,66.16,30.00,10.00,20.64,14.55,10.50,9.50,11.28,8.59,36.67,3.00,12.09,26.96,0.00,45.00,4.02,0.00,0.00,0.00,0.00,16.26,0.00,0.00,1.39,18.92,0.00,0.00,1.68,10.23,0.00,0.00,1.45
0,65.55,30.00,10.00,19.88,14.56,10.50,9.50,11.29,8.59,36.67,3.00,12.09,26.26,0.00,41.67,3.74,0.00,0.00,0.00,0.00,16.54,0.00,0.00,1.40,19.22,0.00,0.00,1.72,10.23,0.00,0.00,1.44
0,68.44,32.86,16.67,21.03,14.57,10.50,9.50,11.29,8.59,36.67,3.00,12.09,25.76,0.00,41.67,3.55,0.00,0.00,0.00,0.00,16.49,0.00,0.00,1.39,18.61,0.00,0.00,1.62,10.06,0.00,0.00,1.36
0,67.92,32.86,16.67,20.75,14.59,10.50,9.50,11.30,8.59,36.67,3.00,12.09,25.58,0.00,40.00,3.58,0.00,0.00,0.00,0.00,16.43,0.00,0.00,1.37,19.15,0.00,0.00,1.67,9.91,0.00,0.00,1.32
0,68.42,32.86,16.67,21.04,14.46,10.50,9.50,11.28,8.58,36.67,3.00,12.09,25.88,0.00,38.33,3.69,0.00,0.00,0.00,0.00,16.61,0.00,0.00,1.39,19.49,0.00,0.00,1.72,9.98,0.00,0.00,1.28
0,67.24,31.43,16.67,20.51,14.35,10.50,9.50,11.27,8.58,36.67,3.00,12.09,25.68,0.00,38.33,3.61,0.00,0.00,0.00,0.00,16.19,0.00,0.00,1.25,19.94,0.00,0.00,1.75,9.96,0.00,0.00,1.26
0,68.32,32.86,16.67,20.46,14.21,10.00,9.50,11.23,8.58,36.67,3.00,12.09,25.56,0.00,40.00,3.40,0.00,0.00,0.00,0.00,16.42,0.00,0.00,1.26,20.30,0.00,0.00,1.84,10.01,0.00,0.00,1.26
0,69.21,35.71,16.67,21.28,13.88,9.50,9.50,11.15,8.58,36.67,3.00,12.09,26.53,0.00,41.67,3.62,0.00,0.00,0.00,0.00,16.52,0.00,0.00,1.27,20.34,0.00,0.00,1.82,10.28,0.00,0.00,1.29
0,69.96,35.71,16.67,21.45,14.18,10.00,9.50,11.21,8.59,36.67,3.00,12.09,26.84,0.00,41.67,3.72,0.00,0.00,0.00,0.00,16.75,0.00,0.00,1.28,20.27,0.00,0.00,1.82,10.08,0.00,0.00,1.22
0,64.60,31.43,10.00,18.07,12.60,9.00,8.50,9.18,6.68,26.67,2.00,8.96,26.64,0.00,41.67,3.70,0.00,0.00,0.00,0.00,16.54,0.00,0.00,1.19,20.86,0.00,0.00,1.86,10.04,0.00,0.00,1.18
0,64.42,30.00,10.00,17.79,10.95,8.00,7.50,7.10,4.97,20.00,1.50,6.29,25.90,0.00,35.00,3.71,0.00,0.00,0.00,0.00,16.06,0.00,0.00,1.13,21.34,0.00,0.00,2.04,9.97,0.00,0.00,1.13
0,66.41,31.43,10.00,19.32,10.33,7.00,6.50,6.84,4.56,16.67,1.50,5.97,25.98,0.00,35.00,3.74,0.00,0.00,0.00,0.00,15.97,0.00,0.00,1.07,21.54,0.00,0.00,2.10,10.20,0.00,0.00,1.16
0,64.50,30.00,10.00,18.88,9.96,6.50,6.00,6.63,4.54,16.67,1.50,5.96,25.72,0.00,35.00,3.62,0.00,0.00,0.00,0.00,15.76,0.00,0.00,1.01,21.12,0.00,0.00,2.11,10.32,0.00,0.00,1.18
0,61.11,27.14,6.67,17.61,9.76,6.50,5.50,6.55,4.53,16.67,1.50,5.96,25.89,0.00,38.33,3.63,0.00,0.00,0.00,0.00,15.22,0.00,0.00,0.99,20.89,0.00,0.00,2.07,10.01,0.00,0.00,1.13
0,61.67,28.57,6.67,17.21,9.85,6.50,5.50,6.56,4.54,16.67,1.50,5.96,25.65,0.00,38.33,3.53,0.00,0.00,0.00,0.00,14.61,0.00,0.00,0.89,20.17,0.00,0.00,1.94,10.09,0.00,0.00,1.12
0,62.94,31.43,6.67,17.86,9.86,6.50,5.50,6.56,5.74,23.33,2.00,8.94,25.07,0.00,36.67,3.42,0.00,0.00,0.00,0.00,13.94,0.00,0.00,0.80,19.97,0.00,2.22,1.96,9.86,0.00,0.00,1.09
0,63.77,32.86,6.67,18.57,9.56,6.00,5.50,6.47,4.75,20.00,1.50,7.84,24.43,0.00,35.00,3.34,0.00,0.00,0.00,0.00,13.90,0.00,0.00,0.79,20.36,0.00,2.22,2.09,9.83,0.00,0.00,1.09
0,61.97,31.43,6.67,18.08,9.99,6.50,6.00,6.97,4.29,20.00,1.50,5.62,24.65,0.00,36.67,3.36,0.00,0.00,0.00,0.00,13.83,0.00,0.00,0.81,20.36,0.00,2.22,2.09,10.16,0.00,0.00,1.24
0,61.29,31.43,6.67,17.75,10.13,6.50,6.00,7.01,4.29,20.00,1.50,5.62,24.56,0.00,35.00,3.37,0.00,0.00,0.00,0.00,13.60,0.00,0.00,0.81,20.64,0.00,2.22,2.19,10.54,0.00,0.00,1.32
0,61.40,32.86,6.67,17.93,9.35,6.00,5.00,6.40,4.29,20.00,1.50,5.62,23.89,0.00,33.33,3.29,0.00,0.00,0.00,0.00,13.45,0.00,0.00,0.79,20.63,0.00,2.22,2.19,10.72,0.00,0.00,1.37
0,62.35,35.71,6.67,17.74,7.77,5.50,3.50,4.21,4.30,20.00,1.50,5.62,23.87,0.00,33.33,3.41,0.00,0.00,0.00,0.00,13.15,0.00,0.00,0.76,20.47,0.00,2.22,2.20,10.88,0.00,0.00,1.38
0,63.86,37.14,6.67,18.73,6.14,5.00,2.50,1.72,5.11,23.33,1.50,5.91,22.87,0.00,31.67,3.21,0.00,0.00,0.00,0.00,12.94,0.00,0.00,0.77,20.54,0.00,2.22,2.22,10.82,0.00,0.00,1.39
0,63.98,37.14,6.67,18.52,5.87,4.50,2.50,1.61,7.41,33.33,2.50,8.50,22.64,0.00,31.67,3.22,0.00,0.00,0.00,0.00,12.73,0.00,0.00,0.77,20.41,0.00,2.22,2.26,10.81,0.00,0.00,1.37
0,62.48,37.14,3.33,17.72,6.26,5.00,2.50,1.68,8.28,36.67,3.00,10.96,22.97,0.00,33.33,3.39,0.00,0.00,0.00,0.00,12.72,0.00,0.00,0.75,20.38,0.00,2.22,2.32,10.47,0.00,0.00,1.34
0,62.03,35.71,3.33,17.45,6.49,5.50,3.00,1.82,8.32,36.67,3.00,10.97,23.51,0.00,36.67,3.50,0.00,0.00,0.00,0.00,13.07,0.00,0.00,0.79,19.95,0.00,2.22,2.29,10.75,0.00,0.00,1.41
0,65.67,38.57,6.67,19.89,6.99,6.00,3.50,1.97,8.32,36.67,3.00,10.97,23.92,0.00,40.00,3.54,0.00,0.00,0.00,0.00,13.14,0.00,0.00,0.80,19.56,0.00,2.22,2.29,10.68,0.00,0.00,1.41
0,66.90,40.00,6.67,20.41,8.35,7.00,4.50,3.31,8.32,36.67,3.00,10.97,23.85,0.00,40.00,3.58,0.00,0.00,0.00,0.00,12.95,0.00,0.00,0.78,18.96,0.00,2.22,2.25,10.64,0.00,0.00,1.38
0,65.01,37.14,6.67,19.89,10.40,8.00,6.00,5.82,8.32,36.67,3.00,10.97,23.01,0.00,36.67,3.41,0.00,0.00,0.00,0.00,12.31,0.00,0.00,0.69,18.21,0.00,2.22,2.04,10.58,0.00,0.00,1.34
0,62.06,32.86,6.67,18.88,10.43,8.00,6.00,5.82,8.32,36.67,3.00,10.97,22.50,0.00,38.33,3.20,0.00,0.00,0.00,0.00,12.62,0.00,0.00,0.74,18.54,0.00,2.22,2.35,10.41,0.00,0.00,1.31
0,64.84,37.14,6.67,21.40,10.19,7.50,6.00,5.77,8.31,36.67,3.00,10.97,22.08,0.00,36.67,3.05,0.00,0.00,0.00,0.00,12.22,0.00,0.00,0.72,18.60,0.00,2.22,2.36,10.40,0.00,0.00,1.32
0,66.36,40.00,6.67,22.33,10.01,7.50,6.00,5.72,8.32,36.67,3.00,10.97,22.09,0.00,35.00,3.14,0.00,0.00,0.00,0.00,12.20,0.00,0.00,0.71,18.41,0.00,2.22,2.42,10.67,0.00,0.00,1.34
0,64.34,38.57,6.67,21.49,10.21,7.50,6.00,5.75,8.32,36.67,3.00,10.97,22.17,0.00,36.67,3.14,0.00,0.00,0.00,0.00,12.26,0.00,0.00,0.72,18.23,0.00,2.22,2.33,10.70,0.00,0.00,1.36
0,61.69,35.71,6.67,19.85,10.19,7.50,6.00,5.75,8.32,36.67,3.00,10.97,22.96,0.00,40.00,3.32,0.00,0.00,0.00,0.00,12.23,0.00,0.00,0.71,17.68,0.00,2.22,2.23,10.65,0.00,0.00,1.36
0,62.80,37.14,6.67,20.37,10.15,7.50,6.00,5.75,8.32,36.67,3.00,10.97,22.30,0.00,38.33,3.16,0.00,0.00,0.00,0.00,12.20,0.00,0.00,0.70,17.66,0.00,2.22,2.17,10.54,0.00,0.00,1.36
0,65.73,40.00,6.67,20.95,10.05,7.00,6.00,5.75,8.33,36.67,3.00,10.97,22.35,0.00,38.33,3.21,0.00,0.00,0.00,0.00,12.63,0.00,0.00,0.74,17.93,0.00,2.22,2.27,10.78,0.00,0.00,1.33
0,64.95,38.57,6.67,21.55,9.90,7.00,6.00,5.70,8.32,36.67,3.00,10.97,22.71,0.00,38.33,3.37,0.00,0.00,0.00,0.00,12.80,0.00,0.00,0.77,18.38,0.00,2.22,2.35,10.39,0.00,0.00,1.29
0,69.64,41.43,10.00,25.49,9.70,6.50,5.50,5.63,7.02,30.00,2.00,9.79,23.34,0.00,40.00,3.67,0.00,0.00,0.00,0.00,13.16,0.00,0.00,0.79,17.87,0.00,0.00,2.23,10.51,0.00,0.00,1.32
0,70.34,41.43,13.33,25.47,9.89,6.50,5.50,5.66,5.24,23.33,1.50,6.02,23.50,0.00,40.00,3.67,0.00,0.00,0.00,0.00,13.17,0.00,0.00,0.79,17.61,0.00,0.00,2.10,10.33,0.00,0.00,1.25
0,69.94,41.43,13.33,25.43,9.37,6.00,5.00,5.24,4.51,16.67,1.50,5.37,24.18,0.00,43.33,3.75,0.00,0.00,0.00,0.00,12.85,0.00,0.00,0.75,17.92,0.00,0.00,2.10,10.06,0.00,0.00,1.13
0,70.16,41.43,13.33,25.62,8.88,5.50,4.50,4.93,4.46,16.67,1.50,5.36,24.87,0.00,46.67,3.82,0.00,0.00,0.00,0.00,13.19,0.00,0.00,0.77,18.06,0.00,0.00,2.12,9.81,0.00,0.00,1.05
0,68.63,38.57,13.33,24.87,8.78,5.00,4.50,4.93,4.46,16.67,1.50,5.36,25.84,0.00,50.00,4.04,0.00,0.00,0.00,0.00,13.17,0.00,0.00,0.76,18.40,0.00,2.22,2.25,9.78,0.00,0.00,1.02
0,67.46,38.57,13.33,24.42,8.72,5.00,5.00,4.89,4.44,16.67,1.50,5.36,25.74,0.00,51.67,3.91,0.00,0.00,0.00,0.00,13.14,0.00,0.00,0.75,18.44,0.00,2.22,2.25,9.44,0.00,0.00,0.96
0,66.96,35.71,13.33,24.37,8.74,5.00,5.00,4.90,3.89,13.33,1.50,5.09,26.84,0.00,56.67,4.14,0.00,0.00,0.00,0.00,13.42,0.00,0.00,0.74,18.30,0.00,2.22,2.18,9.36,0.00,0.00,0.95
0,66.81,34.29,13.33,24.50,9.06,5.50,5.00,4.99,4.10,13.33,2.00,6.29,27.47,0.00,58.33,4.22,0.00,0.00,0.00,0.00,13.50,0.00,0.00,0.72,18.50,0.00,2.22,2.14,9.34,0.00,0.00,0.91
0,67.08,31.43,13.33,24.89,9.77,6.50,6.00,5.62,2.81,10.00,1.00,3.58,27.95,0.00,61.67,4.19,0.00,0.00,0.00,0.00,13.31,0.00,0.00,0.70,19.39,0.00,4.44,2.20,9.63,0.00,0.00,0.96
0,68.69,34.29,13.33,26.10,9.57,6.00,6.00,5.60,2.78,10.00,1.00,3.57,28.03,0.00,60.00,4.19,0.00,0.00,0.00,0.00,13.03,0.00,0.00,0.66,19.69,0.00,4.44,2.23,9.59,0.00,0.00,0.91
0,67.37,32.86,10.00,25.65,9.34,5.50,5.00,5.49,2.78,10.00,1.00,3.57,27.89,0.00,58.33,4.25,0.00,0.00,0.00,0.00,13.16,0.00,0.00,0.67,20.28,0.00,4.44,2.38,9.40,0.00,0.00,0.86
0,66.17,30.00,10.00,25.18,8.49,5.50,5.00,4.49,2.78,10.00,1.00,3.57,27.47,0.00,58.33,4.16,0.00,0.00,0.00,0.00,12.91,0.00,0.00,0.63,20.40,0.00,4.44,2.39,9.14,0.00,0.00,0.85
0,66.32,32.86,10.00,25.58,6.62,4.50,3.50,2.07,2.78,10.00,1.00,3.57,27.93,0.00,58.33,4.28,0.00,0.00,0.00,0.00,12.87,0.00,0.00,0.63,20.80,0.00,4.44,2.41,9.28,0.00,0.00,0.88
0,67.33,34.29,10.00,26.29,6.96,5.00,4.50,2.07,4.18,16.67,1.50,5.21,27.67,0.00,56.67,4.28,0.00,0.00,0.00,0.00,12.75,0.00,0.00,0.59,20.35,0.00,4.44,2.14,9.20,0.00,0.00,0.88
0,69.45,35.71,13.33,26.60,7.53,5.50,5.50,2.34,6.55,23.33,2.50,8.86,28.39,0.00,58.33,4.51,0.00,0.00,0.00,0.00,12.29,0.00,0.00,0.57,21.23,0.00,6.67,2.25,9.08,0.00,0.00,0.88
0,67.56,32.86,13.33,25.04,7.64,5.50,5.50,2.36,8.33,30.00,3.50,12.60,28.01,0.00,56.67,4.35,0.00,0.00,0.00,0.00,12.13,0.00,0.00,0.55,21.09,0.00,6.67,2.18,8.89,0.00,0.00,0.88
0,68.31,32.86,13.33,25.15,7.96,6.00,6.00,2.47,8.37,30.00,3.50,12.61,28.19,0.00,60.00,4.31,0.00,0.00,0.00,0.00,12.16,0.00,0.00,0.55,21.25,0.00,6.67,2.17,8.66,0.00,0.00,0.79
0,69.50,34.29,13.33,25.31,8.77,6.50,7.00,3.14,8.37,30.00,3.50,12.61,28.19,0.00,61.67,4.32,0.00,0.00,0.00,0.00,13.08,0.00,0.00,0.68,22.35,0.00,8.89,2.37,8.98,0.00,0.00,0.83
0,71.63,38.57,13.33,26.26,10.90,8.00,8.50,5.48,8.37,30.00,3.50,12.61,27.94,0.00,60.00,4.24,0.00,0.00,0.00,0.00,13.33,0.00,0.00,0.73,22.66,0.00,8.89,2.52,9.28,0.00,0.00,0.88
0,68.28,35.71,13.33,25.21,11.01,8.50,8.50,5.77,8.37,30.00,3.50,12.61,27.49,0.00,56.67,4.16,0.00,0.00,0.00,0.00,13.46,0.00,0.00,0.78,22.79,0.00,8.89,2.52,9.05,0.00,0.00,0.86
0,68.58,37.14,13.33,25.23,11.00,8.50,8.50,5.77,8.37,30.00,3.50,12.61,27.52,0.00,58.33,4.08,0.00,0.00,0.00,0.00,13.53,0.00,0.00,0.84,22.07,0.00,8.89,2.41,9.22,0.00,0.00,0.90
0,65.14,35.71,13.33,22.21,11.02,8.50,8.50,5.78,8.37,30.00,3.50,12.61,26.91,0.00,56.67,3.88,0.00,0.00,0.00,0.00,13.62,0.00,0.00,0.86,21.91,0.00,8.89,2.38,9.32,0.00,0.00,0.91
0,62.64,32.86,10.00,20.14,10.95,8.50,8.50,5.75,8.37,30.00,3.50,12.61,27.28,0.00,60.00,3.79,0.00,0.00,0.00,0.00,13.93,0.00,0.00,0.91,22.62,0.00,11.11,2.62,9.31,0.00,0.00,0.95
0,66.31,35.71,13.33,23.12,10.88,8.00,8.00,5.72,8.39,30.00,3.50,12.62,26.94,0.00,56.67,3.94,0.00,0.00,0.00,0.00,14.59,0.00,0.00,1.02,22.81,0.00,11.11,2.75,9.46,0.00,0.00,0.94
0,66.85,35.71,13.33,24.09,11.02,8.00,8.00,5.74,8.39,30.00,3.50,12.62,27.46,0.00,55.00,4.21,0.00,0.00,0.00,0.00,14.57,0.00,0.00,1.02,23.29,0.00,11.11,2.87,9.59,0.00,0.00,0.98
0,70.87,40.00,16.67,27.54,10.95,8.00,8.00,5.72,8.39,30.00,3.50,12.62,27.61,0.00,56.67,4.14,0.00,0.00,0.00,0.00,14.88,0.00,0.00,1.10,22.72,0.00,8.89,2.78,10.07,0.00,0.00,1.11
0,71.46,38.57,16.67,27.80,10.84,8.00,7.50,5.71,8.39,30.00,3.50,12.62,27.57,0.00,56.67,4.14,0.00,0.00,0.00,0.00,15.02,0.00,0.00,1.12,23.08,0.00,8.89,2.76,10.01,0.00,0.00,1.11
0,69.63,37.14,16.67,27.17,10.62,7.50,7.00,5.65,8.39,30.00,3.50,12.62,26.76,0.00,51.67,4.01,0.00,0.00,0.00,0.00,14.73,0.00,0.00,1.11,23.42,0.00,8.89,2.86,10.25,0.00,0.00,1.17
0,68.10,37.14,16.67,26.35,10.40,7.00,7.00,5.53,7.96,26.67,3.00,12.62,26.79,0.00,53.33,3.96,0.00,0.00,0.00,0.00,15.11,0.00,0.00,1.17,23.91,0.00,8.89,2.99,10.30,0.00,0.00,1.17
0,68.37,37.14,13.33,26.52,9.84,6.50,6.00,4.99,6.18,20.00,2.50,9.14,26.16,0.00,48.33,4.02,0.00,0.00,0.00,0.00,15.34,0.00,0.00,1.23,23.29,0.00,6.67,2.92,10.22,0.00,0.00,1.17
0,67.45,37.14,16.67,25.24,9.70,6.00,6.00,4.84,6.03,20.00,2.50,9.05,25.99,0.00,48.33,4.06,0.00,0.00,0.00,0.00,15.87,0.00,0.00,1.30,23.10,0.00,6.67,2.88,10.55,0.00,0.00,1.23
0,64.63,34.29,16.67,23.20,9.65,6.00,6.00,4.83,6.03,20.00,2.50,9.05,26.13,0.00,46.67,4.13,0.00,0.00,0.00,0.00,16.00,0.00,0.00,1.31,23.11,0.00,6.67,2.82,10.80,0.00,0.00,1.31
0,64.12,34.29,16.67,22.56,9.33,5.50,5.50,4.73,6.03,20.00,2.50,9.05,26.41,0.00,46.67,4.16,0.00,0.00,0.00,0.00,16.04,0.00,0.00,1.31,22.84,0.00,6.67,2.75,10.75,0.00,0.00,1.31
0,66.11,37.14,16.67,22.85,9.20,5.00,5.50,4.66,6.03,20.00,2.50,9.05,26.33,0.00,46.67,4.08,0.00,0.00,0.00,0.00,16.59,0.00,0.00,1.36,22.48,0.00,6.67,2.74,10.95,0.00,0.00,1.37
0,63.95,32.86,16.67,21.78,8.91,5.00,4.50,4.47,5.14,16.67,2.00,7.56,26.63,0.00,46.67,4.09,0.00,0.00,0.00,0.00,16.56,0.00,0.00,1.37,22.29,0.00,6.67,2.66,11.08,0.00,0.00,1.42
0,60.77,30.00,13.33,20.19,9.41,5.00,4.50,5.38,5.26,20.00,2.00,7.67,26.36,0.00,46.67,4.06,0.00,0.00,0.00,0.00,16.84,0.00,0.00,1.40,21.44,0.00,4.44,2.63,11.02,0.00,0.00,1.39
0,61.79,31.43,13.33,20.50,10.07,6.00,4.50,6.00,3.57,16.67,1.00,4.33,27.70,0.00,51.67,4.60,0.00,0.00,0.00,0.00,16.67,0.00,0.00,1.39,21.85,0.00,4.44,2.69,11.02,0.00,0.00,1.37
0,59.99,30.00,13.33,19.88,9.96,6.00,4.00,5.96,3.45,16.67,1.00,4.28,27.42,0.00,48.33,4.59,0.00,0.00,0.00,0.00,16.63,0.00,0.00,1.39,20.93,0.00,4.44,2.60,11.32,0.00,0.00,1.43
0,59.00,30.00,13.33,19.70,9.68,6.00,3.50,5.87,3.45,16.67,1.00,4.28,27.21,0.00,46.67,4.49,0.00,0.00,0.00,0.00,16.06,0.00,0.00,1.30,20.78,0.00,4.44,2.56,10.98,0.00,0.00,1.41
0,58.78,27.14,13.33,19.44,7.86,4.50,1.50,4.45,3.44,16.67,1.00,4.28,27.56,0.00,48.33,4.55,0.00,0.00,0.00,0.00,15.56,0.00,0.00,1.26,20.49,0.00,2.22,2.40,11.02,0.00,0.00,1.48
0,59.98,27.14,13.33,19.64,7.24,4.00,1.50,2.76,4.52,23.33,1.50,5.32,27.51,0.00,48.33,4.56,0.00,0.00,0.00,0.00,15.04,0.00,0.00,1.20,20.01,0.00,2.22,2.29,10.95,0.00,0.00,1.45
0,58.13,24.29,13.33,18.78,7.73,4.50,2.00,2.89,6.53,30.00,2.50,8.79,28.44,0.00,50.00,4.90,0.00,0.00,0.00,0.00,14.41,0.00,0.00,1.06,20.64,0.00,2.22,2.35,10.83,0.00,0.00,1.40
0,58.20,24.29,10.00,18.99,7.88,5.00,2.00,2.97,6.77,30.00,2.50,9.05,28.89,0.00,50.00,5.03,0.00,0.00,0.00,0.00,14.48,0.00,0.00,1.06,20.81,0.00,2.22,2.34,11.01,0.00,0.00,1.39
0,56.47,22.86,10.00,17.82,8.10,5.50,2.00,3.05,6.78,30.00,2.50,9.05,28.35,0.00,46.67,4.92,0.00,0.00,0.00,0.00,14.30,0.00,0.00,1.01,20.23,0.00,0.00,2.14,11.00,0.00,0.00,1.39
0,54.91,22.86,10.00,15.65,8.29,6.00,2.50,3.15,6.77,30.00,2.50,9.05,28.17,0.00,46.67,4.82,0.00,0.00,0.00,0.00,13.64,0.00,0.00,0.92,19.80,0.00,0.00,2.03,10.85,0.00,0.00,1.38
0,53.56,22.86,10.00,13.91,10.02,7.50,4.50,4.28,6.77,30.00,2.50,9.05,28.39,0.00,51.67,4.66,0.00,0.00,0.00,0.00,13.87,0.00,0.00,0.93,19.57,0.00,0.00,1.94,11.11,0.00,0.00,1.47
0,51.66,21.43,6.67,11.92,10.67,8.50,5.00,5.89,6.77,30.00,2.50,9.05,27.70,0.00,50.00,4.47,0.00,0.00,0.00,0.00,13.64,0.00,0.00,0.89,18.85,0.00,0.00,1.79,10.69,0.00,0.00,1.33
0,51.98,21.43,6.67,11.34,10.73,8.50,5.00,5.90,6.77,30.00,2.50,9.05,26.70,0.00,46.67,4.39,0.00,0.00,0.00,0.00,13.59,0.00,0.00,0.88,18.76,0.00,0.00,1.80,10.77,0.00,0.00,1.34
0,53.26,22.86,6.67,12.76,10.58,8.00,5.00,5.85,6.77,30.00,2.50,9.05,27.32,0.00,46.67,4.63,0.00,0.00,0.00,0.00,13.69,0.00,0.00,0.89,18.10,0.00,0.00,1.66,10.62,0.00,0.00,1.29
0,53.12,22.86,6.67,12.74,10.43,8.00,5.00,5.83,6.79,30.00,2.50,9.05,27.51,0.00,45.00,4.70,0.00,0.00,0.00,0.00,13.11,0.00,0.00,0.83,17.26,0.00,0.00,1.49,10.77,0.00,0.00,1.35
0,55.44,24.29,10.00,14.81,10.24,8.00,5.00,5.80,6.80,30.00,2.50,9.05,27.32,0.00,46.67,4.66,0.00,0.00,0.00,0.00,13.02,0.00,0.00,0.81,17.00,0.00,0.00,1.42,11.00,0.00,0.00,1.42
0,55.74,25.71,10.00,14.73,10.04,8.00,5.00,5.74,6.80,30.00,2.50,9.05,27.68,0.00,50.00,4.71,0.00,0.00,0.00,0.00,12.50,0.00,0.00,0.78,17.31,0.00,0.00,1.50,10.82,0.00,0.00,1.44
0,53.88,22.86,6.67,13.98,9.92,8.00,5.00,5.72,6.80,30.00,2.50,9.05,27.35,0.00,48.33,4.53,0.00,0.00,0.00,0.00,12.26,0.00,0.00,0.73,17.19,0.00,0.00,1.44,10.68,0.00,0.00,1.38
0,54.85,25.71,6.67,14.13,9.96,8.00,5.00,5.72,6.81,30.00,2.50,9.05,27.75,0.00,48.33,4.72,0.00,0.00,0.00,0.00,12.37,0.00,0.00,0.75,17.49,0.00,2.22,1.54,10.34,0.00,0.00,1.32
0,53.53,25.71,6.67,13.80,9.91,7.50,4.50,5.71,6.81,30.00,2.50,9.05,28.17,0.00,53.33,4.74,0.00,0.00,0.00,0.00,12.44,0.00,0.00,0.78,18.21,0.00,2.22,1.62,10.45,0.00,0.00,1.34
0,55.15,27.14,6.67,14.39,9.68,7.50,4.50,5.68,6.81,30.00,2.50,9.05,28.36,0.00,55.00,4.86,0.00,0.00,0.00,0.00,12.78,0.00,0.00,0.85,18.98,0.00,4.44,1.75,10.49,0.00,0.00,1.32
0,55.10,28.57,6.67,14.67,9.25,7.00,4.00,5.57,4.80,20.00,1.50,5.62,28.40,0.00,58.33,4.67,0.00,0.00,0.00,0.00,12.60,0.00,0.00,0.84,19.07,0.00,4.44,1.68,10.67,0.00,0.00,1.39
0,52.61,25.71,6.67,13.58,7.78,5.50,3.50,3.85,3.89,13.33,1.50,4.78,26.93,0.00,51.67,4.14,0.00,0.00,0.00,0.00,13.02,0.00,0.00,0.86,18.57,0.00,4.44,1.56,10.85,0.00,0.00,1.49
0,54.31,27.14,6.67,14.31,7.50,5.00,3.50,3.70,3.84,13.33,1.50,4.78,26.77,0.00,51.67,4.14,0.00,0.00,0.00,0.00,13.00,0.00,0.00,0.87,18.55,0.00,4.44,1.55,10.69,0.00,0.00,1.46
0,59.42,30.00,10.00,17.31,7.57,5.00,3.50,3.72,3.84,13.33,1.50,4.78,27.28,0.00,51.67,4.42,0.00,0.00,0.00,0.00,12.66,0.00,0.00,0.86,18.99,0.00,4.44,1.65,10.49,0.00,0.00,1.46
0,60.17,31.43,13.33,18.00,7.41,5.00,3.50,3.67,3.84,13.33,1.50,4.78,27.18,0.00,50.00,4.40,0.00,0.00,0.00,0.00,12.66,0.00,0.00,0.85,18.83,0.00,4.44,1.64,10.64,0.00,0.00,1.40
0,59.04,30.00,13.33,17.85,7.26,5.00,3.50,3.65,3.08,10.00,1.00,4.37,28.23,0.00,56.67,4.60,0.00,0.00,0.00,0.00,12.46,0.00,0.00,0.82,19.16,0.00,4.44,1.68,10.59,0.00,0.00,1.45
0,61.51,34.29,13.33,18.65,6.90,4.00,3.00,3.54,3.25,13.33,1.00,4.35,27.08,0.00,51.67,4.31,0.00,0.00,0.00,0.00,12.90,0.00,0.00,0.84,18.96,0.00,4.44,1.66,10.88,0.00,0.00,1.56
0,62.80,37.14,13.33,19.16,7.56,4.00,3.50,3.79,4.66,16.67,2.00,7.20,26.79,0.00,51.67,4.13,0.00,0.00,0.00,0.00,12.73,0.00,0.00,0.81,18.65,0.00,4.44,1.63,10.93,0.00,0.00,1.62
0,63.84,38.57,13.33,19.62,7.96,4.50,4.00,4.90,5.34,23.33,2.00,7.78,27.03,0.00,51.67,4.14,0.00,0.00,0.00,0.00,13.06,0.00,0.00,0.85,18.38,0.00,4.44,1.58,11.01,0.00,0.00,1.66
0,62.58,37.14,10.00,18.61,7.72,4.00,3.50,4.79,5.35,23.33,2.00,7.78,27.95,0.00,53.33,4.54,0.00,0.00,0.00,0.00,12.83,0.00,0.00,0.84,18.48,0.00,4.44,1.58,11.18,0.00,0.00,1.67
0,62.64,37.14,10.00,19.25,7.17,3.00,2.00,4.41,5.35,23.33,2.00,7.78,26.98,0.00,46.67,4.33,0.00,0.00,0.00,0.00,12.81,0.00,0.00,0.85,18.47,0.00,4.44,1.58,10.99,0.00,0.00,1.65
0,65.10,41.43,16.67,20.29,5.30,1.50,1.00,2.03,5.35,23.33,2.00,7.78,26.99,0.00,50.00,4.32,0.00,0.00,0.00,0.00,12.91,0.00,0.00,0.84,18.54,0.00,4.44,1.61,10.99,0.00,0.00,1.65
0,66.27,41.43,20.00,20.92,5.63,2.00,1.50,2.12,6.54,26.67,2.50,9.47,28.09,0.00,53.33,4.74,0.00,0.00,0.00,0.00,13.28,0.00,0.00,0.84,19.44,0.00,6.67,1.74,10.93,0.00,0.00,1.68
0,64.63,40.00,20.00,19.10,5.72,2.00,1.50,2.18,8.83,36.67,3.50,13.29,27.90,0.00,53.33,4.62,0.00,0.00,0.00,0.00,13.28,0.00,0.00,0.83,19.79,0.00,6.67,1.79,10.99,0.00,0.00,1.68
0,65.19,40.00,20.00,19.42,6.19,2.50,2.00,2.30,9.10,36.67,3.50,13.62,27.82,0.00,53.33,4.50,0.00,0.00,0.00,0.00,13.41,0.00,0.00,0.82,20.24,0.00,6.67,1.90,10.76,0.00,0.00,1.64
0,65.39,41.43,16.67,18.13,6.59,3.00,2.50,2.49,9.10,36.67,3.50,13.63,28.07,0.00,55.00,4.56,0.00,0.00,0.00,0.00,13.75,0.00,0.00,0.86,21.18,0.00,8.89,2.01,10.60,0.00,0.00,1.64
0,65.22,41.43,16.67,18.04,7.16,3.50,3.50,2.75,9.10,36.67,3.50,13.63,28.31,0.00,53.33,4.52,0.00,0.00,0.00,0.00,13.98,0.00,0.00,0.91,20.93,0.00,8.89,1.95,10.81,0.00,0.00,1.59
0,65.78,42.86,16.67,18.41,9.18,4.50,5.00,4.71,9.10,36.67,3.50,13.63,28.40,0.00,53.33,4.51,0.00,0.00,0.00,0.00,13.99,0.00,0.00,0.90,21.26,0.00,8.89,2.02,10.65,0.00,0.00,1.63
0,65.48,40.00,16.67,18.49,10.89,5.50,6.00,7.13,9.10,36.67,3.50,13.63,27.74,0.00,53.33,4.25,0.00,0.00,0.00,0.00,14.16,0.00,0.00,0.91,20.44,0.00,6.67,1.87,11.12,0.00,0.00,1.70
0,66.64,41.43,16.67,18.73,10.75,5.50,6.00,7.09,9.10,36.67,3.50,13.63,27.43,0.00,50.00,4.21,0.00,0.00,0.00,0.00,13.70,0.00,0.00,0.83,20.18,0.00,6.67,1.84,10.91,0.00,0.00,1.63
0,65.67,38.57,16.67,18.22,10.77,5.50,6.00,7.09,9.10,36.67,3.50,13.63,27.87,0.00,48.33,4.44,0.00,0.00,0.00,0.00,13.85,0.00,0.00,0.84,19.52,0.00,4.44,1.78,10.99,0.00,0.00,1.65
0,64.73,35.71,16.67,17.90,10.64,5.50,6.00,7.08,9.07,36.67,3.50,13.62,28.21,0.00,50.00,4.54,0.00,0.00,0.00,0.00,13.17,0.00,0.00,0.76,19.85,0.00,4.44,1.79,10.84,0.00,0.00,1.60
0,69.47,40.00,23.33,19.50,10.63,5.50,6.00,7.08,9.06,36.67,3.50,13.62,29.48,0.00,53.33,4.97,0.00,0.00,0.00,0.00,12.84,0.00,0.00,0.71,20.02,0.00,4.44,1.88,10.78,0.00,0.00,1.52
0,71.09,41.43,23.33,20.23,10.52,5.50,6.00,7.06,9.06,36.67,3.50,13.62,29.10,0.00,51.67,4.85,0.00,0.00,0.00,0.00,12.69,0.00,0.00,0.70,20.30,0.00,4.44,1.91,10.96,0.00,0.00,1.54
0,67.64,40.00,20.00,17.60,10.46,5.50,6.00,7.04,9.06,36.67,3.50,13.62,28.71,0.00,51.67,4.57,0.00,0.00,0.00,0.00,12.68,0.00,0.00,0.70,19.99,0.00,4.44,1.85,11.37,0.00,0.00,1.66
0,65.39,37.14,16.67,16.24,10.41,5.50,6.00,7.03,9.06,36.67,3.50,13.62,29.04,0.00,51.67,4.62,0.00,0.00,0.00,0.00,13.19,0.00,0.00,0.73,19.85,0.00,4.44,1.85,11.44,0.00,0.00,1.69
0,66.66,38.57,16.67,16.95,10.56,5.50,6.00,7.05,9.06,36.67,3.50,13.62,28.69,0.00,48.33,4.66,0.00,0.00,0.00,0.00,13.37,0.00,0.00,0.77,19.60,0.00,4.44,1.81,11.61,0.00,0.00,1.67
0,65.89,35.71,16.67,17.14,10.57,5.50,6.00,7.05,7.19,26.67,2.50,10.52,28.89,0.00,50.00,4.62,0.00,0.00,0.00,0.00,13.31,0.00,0.00,0.78,19.45,0.00,4.44,1.76,11.29,0.00,0.00,1.61
0,64.94,32.86,16.67,17.29,10.39,5.50,6.00,7.03,5.12,20.00,1.50,6.70,29.16,0.00,51.67,4.69,0.00,0.00,0.00,0.00,13.30,0.00,0.00,0.78,19.48,0.00,4.44,1.80,11.20,0.00,0.00,1.52
0,64.12,30.00,16.67,16.98,8.93,4.00,5.00,5.50,4.28,13.33,1.50,5.86,29.60,0.00,53.33,4.81,0.00,0.00,0.00,0.00,13.42,0.00,0.00,0.77,20.04,0.00,4.44,1.92,11.14,0.00,0.00,1.44
0,67.28,32.86,20.00,18.64,8.81,4.00,5.00,5.47,4.23,13.33,1.50,5.85,28.88,0.00,55.00,4.56,0.00,0.00,0.00,0.00,13.96,0.00,0.00,0.83,20.07,0.00,4.44,1.95,11.06,0.00,0.00,1.44
0,68.31,32.86,20.00,19.39,8.71,4.00,5.00,5.44,4.23,13.33,1.50,5.85,28.58,0.00,55.00,4.47,0.00,0.00,0.00,0.00,14.04,0.00,0.00,0.85,20.46,0.00,4.44,2.04,10.90,0.00,0.00,1.40
0,69.06,31.43,16.67,19.91,8.78,4.00,5.00,5.46,4.24,13.33,1.50,5.86,28.49,0.00,51.67,4.51,0.00,0.00,0.00,0.00,14.06,0.00,0.00,0.83,20.56,0.00,4.44,2.04,10.75,0.00,0.00,1.38
0,65.37,28.57,10.00,17.72,8.56,3.50,4.50,5.38,3.90,13.33,1.00,5.86,27.23,0.00,48.33,4.10,0.00,0.00,0.00,0.00,13.61,0.00,0.00,0.82,19.42,0.00,2.22,1.85,10.79,0.00,0.00,1.36
0,66.95,31.43,10.00,18.84,8.41,3.50,4.50,5.34,3.08,10.00,1.00,5.05,28.22,0.00,50.00,4.30,0.00,0.00,0.00,0.00,13.44,0.00,0.00,0.82,19.89,0.00,4.44,1.98,11.23,0.00,0.00,1.40
0,67.80,32.86,10.00,19.73,8.72,4.00,5.00,5.71,2.45,6.67,1.00,2.80,28.57,0.00,50.00,4.37,0.00,0.00,0.00,0.00,13.32,0.00,0.00,0.87,19.68,0.00,4.44,1.96,12.05,0.00,0.00,1.57
0,67.49,34.29,10.00,20.07,8.99,4.50,5.00,5.84,2.54,6.67,1.00,2.81,28.36,0.00,48.33,4.49,0.00,0.00,0.00,0.00,13.70,0.00,0.00,0.90,18.54,0.00,2.22,1.78,12.39,0.00,0.00,1.63
0,69.46,32.86,13.33,22.23,8.56,4.00,4.00,5.62,2.54,6.67,1.00,2.81,28.42,0.00,50.00,4.47,0.00,0.00,0.00,0.00,13.63,0.00,0.00,0.86,18.37,0.00,2.22,1.75,12.18,0.00,0.00,1.60
0,69.66,31.43,13.33,22.71,6.97,3.00,3.00,3.84,2.54,6.67,1.00,2.81,28.61,0.00,50.00,4.49,0.00,0.00,0.00,0.00,14.25,0.00,0.00,0.91,18.10,0.00,2.22,1.74,12.19,0.00,0.00,1.58
0,75.23,38.57,20.00,25.56,5.31,2.50,2.00,1.37,3.37,10.00,1.00,3.11,29.54,0.00,56.67,4.57,0.00,0.00,0.00,0.00,14.48,0.00,0.00,0.96,18.38,0.00,4.44,1.77,12.09,0.00,0.00,1.58
0,77.54,40.00,20.00,26.92,5.11,2.50,2.00,1.34,5.67,20.00,2.00,5.74,31.29,0.00,63.33,5.06,0.00,0.00,0.00,0.00,14.63,0.00,0.00,0.98,19.15,0.00,4.44,1.92,12.72,0.00,0.00,1.67
0,80.72,44.29,23.33,28.30,5.54,3.00,2.50,1.41,6.75,26.67,2.50,8.40,32.00,0.00,63.33,5.37,0.00,0.00,0.00,0.00,14.74,0.00,0.00,1.02,19.67,0.00,4.44,2.13,12.82,0.00,0.00,1.68
0,80.56,44.29,23.33,28.94,5.87,3.00,2.50,1.53,6.94,26.67,2.50,8.49,31.21,0.00,60.00,5.23,0.00,0.00,0.00,0.00,15.40,0.00,0.00,1.10,19.39,0.00,4.44,2.10,12.98,0.00,0.00,1.72
0,79.27,42.86,16.67,28.88,6.46,3.50,3.50,1.73,6.94,26.67,2.50,8.49,30.85,0.00,60.00,5.08,0.00,0.00,0.00,0.00,15.63,0.00,0.00,1.12,19.39,0.00,4.44,2.09,13.04,0.00,0.00,1.72
0,79.46,42.86,16.67,28.81,7.78,4.50,4.50,3.12,6.95,26.67,2.50,8.49,33.06,0.00,66.67,5.57,0.00,0.00,0.00,0.00,15.97,0.00,0.00,1.14,19.42,0.00,4.44,2.10,13.21,0.00,0.00,1.71
0,79.73,42.86,16.67,28.66,9.74,5.50,6.00,5.64,6.95,26.67,2.50,8.49,32.65,0.00,65.00,5.54,0.00,0.00,0.00,0.00,16.74,0.00,0.00,1.20,19.78,0.00,4.44,2.15,13.52,0.00,0.00,1.80
0,84.38,48.57,23.33,31.50,9.77,5.50,6.00,5.67,6.95,26.67,2.50,8.49,32.56,0.00,65.00,5.46,0.00,0.00,0.00,0.00,17.24,0.00,0.00,1.23,19.96,0.00,4.44,2.27,13.70,0.00,0.00,1.80
1,90.09,55.71,40.00,34.89,9.75,5.50,6.00,5.67,6.95,26.67,2.50,8.49,33.48,0.00,68.33,5.89,0.00,0.00,0.00,0.00,17.61,0.00,0.00,1.24,22.65,2.22,8.89,3.15,14.43,0.00,0.00,2.04
1,91.40,55.71,43.33,36.80,9.77,5.50,6.00,5.68,6.94,26.67,2.50,8.49,34.41,0.00,73.33,6.52,0.00,0.00,0.00,0.00,23.14,10.00,10.00,3.50,25.47,4.44,15.56,5.17,15.43,0.00,0.00,2.25
1,93.77,60.00,43.33,37.80,9.98,5.50,6.00,5.71,6.94,26.67,2.50,8.49,37.32,5.00,78.33,7.57,0.00,0.00,0.00,0.00,27.90,20.00,15.00,6.50,29.80,8.89,20.00,7.39,16.56,0.00,0.00,2.60
1,99.21,64.29,50.00,42.26,10.16,5.50,6.00,5.75,6.94,26.67,2.50,8.49,37.02,5.00,78.33,7.45,0.00,0.00,0.00,0.00,29.22,20.00,15.00,6.88,36.51,13.33,28.89,14.67,18.30,3.33,0.00,3.45
1,97.26,61.43,46.67,40.88,9.91,5.50,6.00,5.70,6.95,26.67,2.50,8.49,37.71,5.00,80.00,7.59,0.00,0.00,0.00,0.00,30.59,26.67,15.00,7.30,47.57,20.00,35.56,28.13,19.49,3.33,0.00,3.99
1,98.36,62.86,50.00,42.86,9.96,5.50,6.00,5.71,6.94,26.67,2.50,8.49,38.54,5.00,81.67,7.66,0.00,0.00,0.00,0.00,32.15,30.00,15.00,7.86,55.31,26.67,44.44,32.34,20.65,3.33,0.00,4.25
1,101.34,65.71,53.33,44.01,9.87,5.50,6.00,5.70,6.94,26.67,2.50,8.49,39.72,5.00,81.67,8.67,0.00,0.00,0.00,0.00,34.76,33.33,15.00,8.39,65.50,33.33,53.33,47.60,21.91,3.33,0.00,4.89
1,107.12,68.57,63.33,48.44,9.94,6.00,6.00,5.72,6.95,26.67,2.50,8.49,42.09,10.00,86.67,9.98,0.00,0.00,0.00,0.00,37.69,36.67,15.00,9.19,72.09,40.00,60.00,51.47,23.23,3.33,0.00,5.27
1,110.44,70.00,73.33,51.73,10.07,6.00,6.00,5.75,5.61,23.33,1.50,6.38,41.27,10.00,85.00,9.61,0.00,0.00,0.00,0.00,43.70,46.67,25.00,13.55,78.20,46.67,66.67,54.84,24.50,6.67,0.00,5.80
1,114.55,71.43,76.67,55.86,9.61,5.50,5.00,5.42,5.01,20.00,1.50,5.70,44.88,10.00,93.33,11.04,0.00,0.00,0.00,0.00,45.34,46.67,25.00,14.00,90.22,55.56,75.56,69.21,25.56,10.00,0.00,6.44
1,119.03,74.29,90.00,57.17,8.98,4.50,4.50,5.04,4.89,20.00,1.50,5.69,45.34,10.00,95.00,11.12,0.00,0.00,0.00,0.00,49.34,53.33,25.00,15.08,97.30,64.44,84.44,73.96,26.54,10.00,0.00,6.76
1,118.80,74.29,90.00,57.20,9.01,5.00,5.00,5.03,4.86,20.00,1.50,5.68,46.21,10.00,96.67,11.69,0.00,0.00,0.00,0.00,52.75,56.67,30.00,17.03,100.49,68.89,91.11,76.22,27.20,10.00,0.00,6.91
1,120.83,77.14,93.33,57.51,9.25,5.50,5.50,5.14,4.86,20.00,1.50,5.68,47.55,10.00,101.67,12.19,0.00,0.00,0.00,0.00,54.55,60.00,30.00,17.57,105.21,75.56,97.78,78.80,27.26,10.00,0.00,6.85
1,119.99,77.14,93.33,57.66,9.14,5.00,5.00,5.11,5.61,20.00,2.00,6.58,47.62,10.00,98.33,12.33,0.00,0.00,0.00,0.00,56.75,60.00,30.00,18.08,108.01,80.00,102.22,80.12,28.28,10.00,0.00,7.06
1,125.40,80.00,106.67,63.34,10.96,6.00,6.00,7.08,5.60,20.00,2.00,7.92,49.28,10.00,95.00,13.85,0.00,0.00,0.00,0.00,63.18,73.33,40.00,22.54,121.22,86.67,111.11,93.42,29.27,10.00,0.00,7.42
1,126.44,78.57,110.00,64.29,11.41,6.50,6.50,7.73,3.85,16.67,1.00,4.46,49.27,10.00,96.67,13.66,0.00,0.00,0.00,0.00,68.42,80.00,40.00,24.70,130.65,93.33,120.00,105.32,30.96,10.00,0.00,8.24
1,130.99,81.43,116.67,67.83,11.12,6.00,6.00,7.64,3.39,13.33,1.00,4.16,49.88,10.00,96.67,14.03,0.00,0.00,0.00,0.00,73.32,90.00,55.00,27.13,139.16,97.78,131.11,114.35,32.12,10.00,0.00,8.75
1,135.95,87.14,120.00,70.27,10.98,6.00,5.00,7.64,3.39,13.33,1.00,4.16,50.05,10.00,96.67,14.28,0.00,0.00,0.00,0.00,77.38,93.33,60.00,28.69,144.56,104.44,142.22,118.27,32.85,10.00,0.00,9.05
1,137.06,85.71,120.00,72.54,10.05,6.00,4.50,6.44,3.90,16.67,1.00,4.41,51.70,15.00,100.00,15.02,0.00,0.00,0.00,0.00,80.09,96.67,60.00,29.42,153.25,108.89,151.11,128.36,34.00,13.33,0.00,9.64
1,141.33,88.57,123.33,79.36,8.24,5.00,3.50,3.99,5.85,23.33,2.00,7.65,51.12,15.00,96.67,15.08,0.00,0.00,0.00,0.00,82.66,103.33,65.00,30.22,161.69,115.56,160.00,138.72,34.27,13.33,0.00,9.66
1,140.15,88.57,116.67,76.98,8.37,5.50,4.00,3.86,6.08,23.33,2.00,7.90,52.52,15.00,100.00,15.56,0.00,0.00,0.00,0.00,84.57,106.67,65.00,30.98,167.50,120.00,164.44,144.60,34.52,13.33,0.00,9.79
1,141.95,87.14,116.67,79.63,8.70,6.00,4.50,3.98,6.08,23.33,2.00,7.90,52.47,15.00,100.00,15.39,0.00,0.00,0.00,0.00,88.78,120.00,65.00,31.96,174.24,128.89,173.33,150.35,35.16,13.33,0.00,10.15
1,140.53,85.71,113.33,78.34,9.37,6.50,5.50,4.21,6.08,23.33,2.00,7.90,52.44,15.00,101.67,14.98,0.00,0.00,0.00,0.00,89.52,120.00,65.00,32.25,178.70,131.11,175.56,155.81,35.25,13.33,0.00,10.27
1,141.73,87.14,120.00,77.80,10.48,7.50,6.50,5.58,6.08,23.33,2.00,7.90,50.50,10.00,95.00,14.53,0.00,0.00,0.00,0.00,83.79,106.67,55.00,28.72,179.26,133.33,175.56,155.31,35.15,13.33,0.00,10.23
1,141.72,85.71,123.33,77.23,10.29,7.50,6.50,5.54,6.07,23.33,2.00,7.90,52.95,10.00,98.33,15.47,0.00,0.00,0.00,0.00,84.83,113.33,55.00,28.96,175.09,131.11,177.78,150.62,33.96,10.00,0.00,9.61
1,149.64,91.43,133.33,83.70,10.26,7.50,6.50,5.54,6.09,23.33,2.00,7.90,52.87,10.00,96.67,15.76,0.00,0.00,0.00,0.00,87.72,116.67,60.00,30.15,170.66,131.11,177.78,142.75,33.42,10.00,0.00,9.45
1,155.60,97.14,143.33,87.49,10.51,7.50,6.50,5.59,6.08,23.33,2.00,7.90,53.21,10.00,98.33,15.85,0.00,0.00,0.00,0.00,87.53,110.00,60.00,29.94,168.45,128.89,180.00,138.85,32.45,10.00,0.00,8.93
1,154.41,97.14,143.33,85.65,10.23,7.50,6.50,5.53,6.09,23.33,2.00,7.90,52.93,10.00,98.33,15.38,0.00,0.00,0.00,0.00,86.19,106.67,60.00,29.85,165.08,126.67,175.56,133.43,31.78,10.00,0.00,8.80
1,155.33,101.43,143.33,85.29,10.00,7.00,6.50,5.50,6.10,23.33,2.00,7.90,52.55,5.00,98.33,14.50,0.00,0.00,0.00,0.00,87.51,110.00,60.00,30.61,161.52,124.44,177.78,130.63,31.13,10.00,0.00,8.77
1,150.52,97.14,133.33,82.72,9.85,7.00,6.50,5.45,6.12,23.33,2.00,7.90,52.05,5.00,95.00,14.44,0.00,0.00,0.00,0.00,82.16,96.67,50.00,26.37,163.06,126.67,182.22,130.59,30.71,6.67,0.00,8.37
1,152.12,98.57,133.33,84.00,9.53,6.50,6.50,5.37,6.13,23.33,2.00,7.90,49.68,5.00,88.33,13.70,0.00,0.00,0.00,0.00,82.94,100.00,50.00,26.61,157.83,120.00,180.00,124.81,30.18,3.33,0.00,8.25
1,152.89,100.00,133.33,83.48,9.55,6.50,6.50,5.36,6.13,23.33,2.00,7.90,47.26,5.00,81.67,13.02,0.00,0.00,0.00,0.00,83.67,103.33,55.00,27.13,150.92,111.11,175.56,118.05,30.18,6.67,0.00,8.49
1,154.33,101.43,133.33,85.44,9.56,6.50,6.50,5.36,6.13,23.33,2.00,7.90,47.23,5.00,80.00,12.73,0.00,0.00,0.00,0.00,78.62,96.67,50.00,24.83,148.87,104.44,173.33,115.10,29.86,6.67,0.00,8.53
1,157.83,102.86,133.33,91.10,9.03,6.00,5.50,5.24,6.14,23.33,2.00,7.90,45.78,5.00,75.00,12.63,0.00,0.00,0.00,0.00,77.59,93.33,50.00,24.63,149.38,102.22,173.33,115.87,30.44,6.67,0.00,8.97
1,160.99,104.29,136.67,93.17,8.66,5.50,5.50,5.10,6.12,23.33,2.00,7.90,46.11,5.00,75.00,12.70,1.01,0.50,5.00,2.97,77.47,93.33,50.00,24.33,151.92,106.67,177.78,117.35,30.20,6.67,0.00,9.13
1,158.86,101.43,130.00,92.61,7.67,5.00,4.50,4.58,3.99,16.67,1.00,4.43,43.50,5.00,71.67,11.73,1.47,1.00,5.00,3.93,71.75,83.33,40.00,20.66,146.69,106.67,175.56,111.19,29.23,6.67,0.00,8.75
1,156.12,100.00,123.33,91.88,6.68,4.00,4.00,2.53,3.23,10.00,1.00,3.75,42.46,5.00,66.67,10.96,1.49,1.00,5.00,3.93,67.66,76.67,40.00,18.51,141.50,106.67,175.56,100.22,28.02,6.67,0.00,8.19
1,151.29,98.57,116.67,87.99,6.68,4.00,4.00,2.50,4.69,16.67,2.00,6.37,41.84,5.00,68.33,10.58,1.49,1.00,5.00,3.93,61.26,63.33,25.00,15.87,136.62,106.67,171.11,93.54,27.25,6.67,0.00,7.95
1,154.25,98.57,123.33,90.92,8.19,4.50,5.00,4.52,5.48,20.00,2.00,7.28,41.99,5.00,70.00,10.28,1.49,1.00,5.00,3.93,58.16,60.00,20.00,13.97,137.58,108.89,168.89,92.46,26.85,6.67,0.00,7.66
1,155.62,101.43,123.33,90.91,8.22,4.50,4.50,4.68,5.15,16.67,2.00,7.19,39.93,0.00,68.33,9.43,1.49,1.00,5.00,3.93,57.46,60.00,20.00,13.85,131.87,104.44,162.22,86.97,26.98,6.67,0.00,7.67
1,154.92,100.00,123.33,85.57,7.98,3.50,4.00,4.60,3.48,13.33,1.00,4.38,41.38,0.00,73.33,9.83,1.49,1.00,5.00,3.93,56.67,56.67,20.00,13.65,127.39,100.00,155.56,82.13,25.98,3.33,0.00,7.48
1,158.05,100.00,130.00,90.04,7.78,3.00,3.50,4.48,2.89,10.00,1.00,3.56,41.69,0.00,73.33,9.66,1.49,1.00,5.00,3.93,54.81,50.00,15.00,12.96,124.81,97.78,155.56,75.33,26.60,3.33,0.00,7.63
1,160.59,98.57,130.00,94.06,7.56,2.50,3.00,4.39,4.53,16.67,1.50,5.94,40.71,0.00,70.00,9.39,1.49,1.00,5.00,3.93,52.36,43.33,15.00,12.35,118.06,91.11,148.89,69.08,25.31,3.33,0.00,7.25
1,159.90,97.14,126.67,92.94,7.33,2.50,2.50,4.23,6.65,23.33,2.50,9.73,39.94,0.00,68.33,9.10,1.49,1.00,5.00,3.93,49.19,30.00,10.00,10.95,115.00,86.67,148.89,66.05,24.51,3.33,0.00,6.78
1,161.57,101.43,126.67,93.17,6.14,2.00,2.00,2.92,6.78,23.33,2.50,9.78,40.43,0.00,70.00,9.47,1.49,1.00,5.00,3.93,49.61,36.67,10.00,11.04,113.98,88.89,146.67,66.85,23.99,3.33,0.00,6.72
