0,46.98,12.86,0.00,11.21,18.31,11.50,14.50,19.12,7.81,30.00,2.50,10.61,28.52,0.00,48.33,4.92,0.00,0.00,0.00,0.00,15.24,0.00,0.00,1.08,17.67,0.00,0.00,1.54,12.89,0.00,0.00,1.72
0,45.80,12.86,0.00,11.00,17.82,11.00,14.00,18.95,7.81,30.00,2.50,10.61,28.94,0.00,50.00,4.88,0.00,0.00,0.00,0.00,15.47,0.00,0.00,1.13,17.54,0.00,0.00,1.54,13.03,0.00,0.00,1.79
0,43.28,8.57,0.00,9.69,16.71,10.00,13.00,18.33,7.81,30.00,2.50,10.61,28.68,0.00,50.00,4.76,0.00,0.00,0.00,0.00,15.41,0.00,0.00,1.10,16.95,0.00,0.00,1.47,13.14,0.00,0.00,1.90
0,44.59,10.00,0.00,10.44,15.77,9.00,12.00,17.79,7.82,30.00,2.50,10.61,28.75,0.00,50.00,4.83,0.00,0.00,0.00,0.00,15.52,0.00,0.00,1.13,16.81,0.00,0.00,1.43,13.09,0.00,0.00,1.86
0,44.60,11.43,0.00,10.82,15.05,8.00,11.00,17.27,7.82,30.00,2.50,10.61,28.42,0.00,51.67,4.78,0.00,0.00,0.00,0.00,15.40,0.00,0.00,1.15,16.95,0.00,0.00,1.48,12.95,0.00,0.00,1.85
0,45.02,11.43,0.00,10.70,14.33,7.00,10.00,16.79,7.81,30.00,2.50,10.61,28.55,0.00,51.67,4.76,0.00,0.00,0.00,0.00,15.79,0.00,0.00,1.18,16.50,0.00,0.00,1.43,13.22,0.00,0.00,1.92
0,43.26,10.00,0.00,10.05,14.31,7.00,10.00,16.79,6.10,20.00,2.00,8.21,28.80,0.00,51.67,4.78,0.00,0.00,0.00,0.00,15.35,0.00,0.00,1.12,16.54,0.00,0.00,1.44,13.14,0.00,0.00,1.95
0,43.19,10.00,0.00,9.89,13.20,7.00,9.50,15.17,5.42,16.67,2.00,7.75,28.57,0.00,48.33,4.79,0.00,0.00,0.00,0.00,15.60,0.00,0.00,1.17,16.19,0.00,0.00,1.40,12.94,0.00,0.00,1.92
0,43.41,10.00,0.00,9.81,12.56,6.50,9.00,14.02,5.40,16.67,2.00,7.74,28.09,0.00,48.33,4.69,0.00,0.00,0.00,0.00,15.67,0.00,0.00,1.19,15.62,0.00,0.00,1.31,13.57,0.00,0.00,2.18
0,44.15,10.00,0.00,9.91,11.88,6.50,8.50,12.80,5.40,16.67,2.00,7.74,28.52,0.00,50.00,4.79,0.00,0.00,0.00,0.00,15.35,0.00,0.00,1.18,15.70,0.00,0.00,1.31,13.69,0.00,0.00,2.20
0,44.17,10.00,0.00,9.81,11.06,6.50,8.00,10.26,5.24,16.67,2.00,7.74,28.52,0.00,50.00,4.82,0.00,0.00,0.00,0.00,15.13,0.00,0.00,1.16,16.08,0.00,0.00,1.38,13.40,0.00,0.00,2.09
0,44.25,10.00,0.00,9.79,10.49,6.50,7.50,9.38,5.33,16.67,2.00,9.33,27.66,0.00,46.67,4.65,0.00,0.00,0.00,0.00,14.79,0.00,0.00,1.11,16.11,0.00,0.00,1.39,14.07,0.00,0.00,2.19
0,43.98,8.57,0.00,9.16,9.41,6.50,7.00,8.03,4.02,16.67,1.00,5.04,28.78,0.00,48.33,4.91,0.00,0.00,0.00,0.00,14.44,0.00,0.00,1.04,16.32,0.00,0.00,1.36,13.94,0.00,0.00,2.21
0,46.19,10.00,0.00,9.84,9.03,6.50,7.50,6.92,3.46,13.33,1.00,4.12,28.17,0.00,48.33,4.66,0.00,0.00,0.00,0.00,14.68,0.00,0.00,1.06,16.67,0.00,0.00,1.38,13.84,0.00,0.00,2.22
0,45.29,10.00,0.00,9.81,10.90,7.50,8.50,9.00,3.45,13.33,1.00,4.12,26.98,0.00,45.00,4.18,0.00,0.00,0.00,0.00,14.33,0.00,0.00,0.99,16.91,0.00,0.00,1.38,13.80,0.00,0.00,2.26
0,44.34,10.00,0.00,9.58,13.57,8.50,10.00,12.49,3.45,13.33,1.00,4.12,27.05,0.00,45.00,4.23,0.00,0.00,0.00,0.00,14.22,0.00,0.00,0.95,16.81,0.00,0.00,1.37,14.01,0.00,0.00,2.22
0,42.36,8.57,0.00,9.26,15.09,9.50,11.50,14.73,4.05,16.67,1.00,4.26,26.65,0.00,45.00,4.09,0.00,0.00,0.00,0.00,13.77,0.00,0.00,0.85,16.29,0.00,0.00,1.27,13.82,0.00,0.00,2.20
0,43.24,8.57,0.00,9.01,16.49,10.50,12.50,15.80,6.21,26.67,1.50,6.49,26.95,0.00,45.00,4.30,0.00,0.00,0.00,0.00,13.39,0.00,0.00,0.81,16.51,0.00,0.00,1.34,13.71,0.00,0.00,2.18
0,42.50,7.14,0.00,8.78,18.70,12.00,14.50,17.40,7.05,30.00,2.00,8.91,26.57,0.00,45.00,3.94,0.00,0.00,0.00,0.00,13.30,0.00,0.00,0.80,16.58,0.00,0.00,1.34,13.71,0.00,0.00,2.14
0,43.08,7.14,0.00,8.81,20.88,13.00,16.50,20.78,7.09,30.00,2.00,8.92,26.47,0.00,40.00,3.94,0.00,0.00,0.00,0.00,13.03,0.00,0.00,0.73,16.65,0.00,0.00,1.38,14.00,0.00,0.00,2.19
0,42.10,7.14,0.00,8.69,21.57,13.50,16.50,21.39,7.06,30.00,2.00,8.92,27.15,0.00,45.00,4.23,0.00,0.00,0.00,0.00,12.57,0.00,0.00,0.71,16.43,0.00,0.00,1.36,13.62,0.00,0.00,2.09
0,43.50,10.00,0.00,9.14,21.58,13.50,16.50,21.39,7.05,30.00,2.00,8.92,27.45,0.00,46.67,4.22,0.00,0.00,0.00,0.00,12.48,0.00,0.00,0.70,16.15,0.00,0.00,1.29,13.77,0.00,0.00,2.12
0,43.16,10.00,0.00,8.96,21.57,13.50,16.50,21.39,7.05,30.00,2.00,8.92,27.08,0.00,45.00,4.16,0.00,0.00,0.00,0.00,12.53,0.00,0.00,0.71,16.55,0.00,0.00,1.39,13.53,0.00,0.00,2.04
0,43.49,11.43,0.00,9.13,21.58,13.50,16.50,21.39,7.04,30.00,2.00,8.92,27.84,0.00,48.33,4.26,0.00,0.00,0.00,0.00,12.67,0.00,0.00,0.72,17.04,0.00,0.00,1.54,13.33,0.00,0.00,1.95
0,43.41,11.43,0.00,9.03,21.59,13.50,16.50,21.39,7.04,30.00,2.00,8.92,27.82,0.00,46.67,4.23,0.00,0.00,0.00,0.00,12.30,0.00,0.00,0.69,17.10,0.00,0.00,1.64,13.40,0.00,0.00,1.95
0,41.63,8.57,0.00,7.63,21.37,13.50,16.50,21.36,7.04,30.00,2.00,8.92,27.89,0.00,45.00,4.50,0.00,0.00,0.00,0.00,12.63,0.00,0.00,0.69,17.57,0.00,0.00,1.71,13.42,0.00,0.00,1.99
0,42.33,10.00,0.00,8.16,21.16,13.50,16.50,21.32,7.04,30.00,2.00,8.92,27.50,0.00,43.33,4.50,0.00,0.00,0.00,0.00,12.45,0.00,0.00,0.66,17.89,0.00,0.00,1.71,13.71,0.00,0.00,2.00
0,43.17,10.00,0.00,8.44,21.14,13.50,16.50,21.32,7.04,30.00,2.00,8.92,28.04,0.00,45.00,4.67,0.00,0.00,0.00,0.00,12.29,0.00,0.00,0.66,17.64,0.00,0.00,1.68,13.72,0.00,0.00,2.00
0,43.26,10.00,0.00,8.43,21.03,13.50,16.00,21.32,7.04,30.00,2.00,8.92,26.46,0.00,40.00,4.38,0.00,0.00,0.00,0.00,12.15,0.00,0.00,0.65,17.82,0.00,0.00,1.72,13.65,0.00,0.00,1.91
0,43.38,10.00,0.00,8.64,19.50,12.50,15.00,20.57,7.04,30.00,2.00,8.92,27.18,0.00,41.67,4.51,0.00,0.00,0.00,0.00,12.07,0.00,0.00,0.65,18.43,0.00,0.00,1.95,12.88,0.00,0.00,1.63
0,43.63,11.43,0.00,8.93,17.42,11.50,13.50,17.56,7.06,30.00,2.00,8.92,26.95,0.00,38.33,4.47,0.00,0.00,0.00,0.00,12.06,0.00,0.00,0.62,18.40,0.00,0.00,1.97,12.74,0.00,0.00,1.59
0,44.24,12.86,0.00,9.70,15.76,10.00,12.00,16.10,7.06,30.00,2.00,8.92,26.89,0.00,38.33,4.42,0.00,0.00,0.00,0.00,11.72,0.00,0.00,0.58,18.55,0.00,0.00,1.98,13.03,0.00,0.00,1.65
0,44.53,12.86,0.00,9.99,14.98,9.00,11.00,15.63,5.57,26.67,1.00,6.30,26.80,0.00,38.33,4.37,0.00,0.00,0.00,0.00,11.85,0.00,0.00,0.57,18.66,0.00,0.00,1.94,13.01,0.00,0.00,1.69
0,44.54,14.29,0.00,10.27,14.55,8.00,10.00,15.33,4.33,16.67,1.00,4.90,26.52,0.00,38.33,4.24,0.00,0.00,0.00,0.00,11.39,0.00,0.00,0.55,18.27,0.00,0.00,1.91,12.67,0.00,0.00,1.55
0,44.27,14.29,0.00,10.14,13.76,7.50,9.00,14.63,4.13,16.67,1.00,4.81,26.85,0.00,40.00,4.24,0.00,0.00,0.00,0.00,10.82,0.00,0.00,0.52,18.70,0.00,0.00,1.95,12.43,0.00,0.00,1.53
0,44.35,14.29,0.00,9.92,13.17,7.50,8.50,14.00,4.11,16.67,1.00,4.81,27.33,0.00,41.67,4.32,0.00,0.00,0.00,0.00,10.49,0.00,0.00,0.49,19.21,0.00,0.00,2.13,12.17,0.00,0.00,1.42
0,43.28,14.29,0.00,9.49,12.38,7.50,9.00,13.04,4.12,16.67,1.00,4.81,26.94,0.00,40.00,4.18,0.00,0.00,0.00,0.00,10.48,0.00,0.00,0.51,19.50,0.00,0.00,2.22,11.46,0.00,0.00,1.31
0,43.81,14.29,0.00,9.59,11.96,8.00,9.00,10.15,3.74,13.33,1.00,4.68,26.87,0.00,36.67,4.25,0.00,0.00,0.00,0.00,10.61,0.00,0.00,0.51,20.00,0.00,0.00,2.35,11.49,0.00,0.00,1.25
0,43.89,14.29,0.00,9.73,11.86,7.50,9.50,10.04,3.56,13.33,1.50,4.65,27.15,0.00,40.00,4.17,0.00,0.00,0.00,0.00,10.77,0.00,0.00,0.53,20.12,0.00,0.00,2.35,11.87,0.00,0.00,1.34
0,44.38,14.29,0.00,10.11,11.96,7.50,9.50,10.18,2.90,16.67,0.50,2.54,27.71,0.00,40.00,4.27,0.00,0.00,0.00,0.00,11.05,0.00,0.00,0.55,20.25,0.00,0.00,2.36,12.10,0.00,0.00,1.42
0,44.58,14.29,0.00,10.27,9.97,6.50,7.50,7.87,3.01,16.67,0.50,2.66,27.14,0.00,41.67,4.20,0.00,0.00,0.00,0.00,11.25,0.00,0.00,0.56,20.29,0.00,0.00,2.29,12.08,0.00,0.00,1.42
0,45.35,14.29,0.00,10.42,9.41,7.00,8.50,6.01,3.01,16.67,0.50,2.66,26.74,0.00,38.33,4.03,0.00,0.00,0.00,0.00,11.40,0.00,0.00,0.57,20.57,0.00,0.00,2.45,12.09,0.00,0.00,1.37
0,44.06,11.43,0.00,10.07,10.85,8.00,10.00,6.74,3.01,16.67,0.50,2.66,25.89,0.00,35.00,3.85,0.00,0.00,0.00,0.00,11.37,0.00,0.00,0.57,20.72,0.00,0.00,2.47,11.97,0.00,0.00,1.35
0,44.88,12.86,0.00,10.37,12.74,9.00,12.00,9.78,3.51,20.00,0.50,2.89,26.72,0.00,38.33,4.09,0.00,0.00,0.00,0.00,11.07,0.00,0.00,0.54,20.57,0.00,0.00,2.42,12.16,0.00,0.00,1.39
0,45.75,11.43,0.00,10.66,13.05,9.00,12.00,9.90,5.56,26.67,1.50,6.39,26.44,0.00,36.67,4.00,0.00,0.00,0.00,0.00,10.84,0.00,0.00,0.51,20.70,0.00,0.00,2.37,11.87,0.00,0.00,1.34
0,45.57,11.43,0.00,10.70,13.06,9.00,12.00,9.90,7.66,33.33,2.50,10.16,26.47,0.00,38.33,4.01,0.00,0.00,0.00,0.00,10.34,0.00,0.00,0.48,20.15,0.00,0.00,2.19,12.70,0.00,0.00,1.55
0,45.33,11.43,0.00,10.90,13.04,9.00,12.00,9.90,7.72,33.33,2.50,10.17,25.50,0.00,38.33,3.56,0.00,0.00,0.00,0.00,10.04,0.00,0.00,0.45,20.35,0.00,0.00,2.25,12.49,0.00,0.00,1.51
0,44.56,11.43,0.00,10.59,13.05,9.00,12.00,9.90,7.72,33.33,2.50,10.17,25.63,0.00,38.33,3.56,0.00,0.00,0.00,0.00,9.88,0.00,0.00,0.44,20.63,0.00,0.00,2.35,11.77,0.00,0.00,1.39
0,45.25,12.86,0.00,10.89,13.05,9.00,12.00,9.90,7.72,33.33,2.50,10.17,25.94,0.00,40.00,3.77,0.00,0.00,0.00,0.00,10.04,0.00,0.00,0.45,21.11,0.00,0.00,2.46,11.83,0.00,0.00,1.37
0,45.70,12.86,0.00,11.56,13.04,9.00,12.00,9.90,7.72,33.33,2.50,10.17,26.72,0.00,40.00,4.11,0.00,0.00,0.00,0.00,10.34,0.00,0.00,0.48,21.22,0.00,0.00,2.48,11.90,0.00,0.00,1.39
0,46.21,14.29,0.00,11.99,13.04,9.00,12.00,9.90,7.72,33.33,2.50,10.17,26.90,0.00,41.67,4.05,0.00,0.00,0.00,0.00,10.36,0.00,0.00,0.47,21.13,0.00,2.22,2.36,11.89,0.00,0.00,1.40
0,45.93,11.43,0.00,11.83,13.02,9.00,12.00,9.90,7.70,33.33,2.50,10.17,27.08,0.00,41.67,3.98,0.00,0.00,0.00,0.00,10.38,0.00,0.00,0.49,21.39,0.00,2.22,2.32,11.86,0.00,0.00,1.42
0,44.68,10.00,0.00,11.20,13.02,9.00,12.00,9.90,7.71,33.33,2.50,10.17,26.37,0.00,40.00,3.84,0.00,0.00,0.00,0.00,10.40,0.00,0.00,0.50,21.10,0.00,2.22,2.28,11.85,0.00,0.00,1.42
0,44.31,10.00,0.00,10.46,12.97,9.00,12.00,9.90,7.71,33.33,2.50,10.17,27.35,0.00,43.33,4.09,0.00,0.00,0.00,0.00,10.63,0.00,0.00,0.52,21.63,0.00,4.44,2.40,11.17,0.00,0.00,1.30
0,44.29,10.00,0.00,10.28,12.65,9.00,12.00,9.84,7.70,33.33,2.50,10.17,26.84,0.00,41.67,4.01,0.00,0.00,0.00,0.00,11.11,0.00,0.00,0.57,21.77,0.00,4.44,2.48,11.03,0.00,0.00,1.27
0,45.90,11.43,0.00,11.52,12.31,8.50,12.00,9.76,7.70,33.33,2.50,10.17,26.95,0.00,40.00,4.16,0.00,0.00,0.00,0.00,11.22,0.00,0.00,0.59,21.51,0.00,4.44,2.43,11.21,0.00,0.00,1.28
0,44.52,8.57,0.00,11.39,12.01,8.50,12.00,9.69,7.70,33.33,2.50,10.17,26.73,0.00,36.67,4.15,0.00,0.00,0.00,0.00,11.73,0.00,0.00,0.64,21.27,0.00,6.67,2.40,11.65,0.00,0.00,1.48
0,45.17,8.57,0.00,11.67,10.96,7.50,10.00,9.33,7.69,33.33,2.50,10.17,26.90,0.00,41.67,4.23,0.00,0.00,0.00,0.00,11.83,0.00,0.00,0.66,21.31,0.00,6.67,2.30,12.15,0.00,0.00,1.59
0,44.96,8.57,0.00,12.05,9.18,6.50,8.50,7.49,7.69,33.33,2.50,10.17,27.04,0.00,46.67,4.19,0.00,0.00,0.00,0.00,12.00,0.00,0.00,0.67,20.71,0.00,6.67,2.21,12.42,0.00,0.00,1.64
0,44.61,8.57,0.00,11.97,8.54,6.00,8.00,6.22,7.44,30.00,2.00,10.17,27.23,0.00,45.00,4.32,0.00,0.00,0.00,0.00,12.50,0.00,0.00,0.73,20.85,0.00,6.67,2.25,12.47,0.00,0.00,1.73
0,44.87,8.57,0.00,11.88,9.14,6.00,8.00,7.36,5.70,20.00,2.00,8.45,26.50,0.00,41.67,4.36,0.00,0.00,0.00,0.00,12.71,0.00,0.00,0.75,20.78,0.00,6.67,2.22,12.33,0.00,0.00,1.67
0,44.71,8.57,0.00,11.87,10.93,7.00,9.50,9.77,5.17,16.67,2.00,7.52,26.59,0.00,40.00,4.50,0.00,0.00,0.00,0.00,12.30,0.00,0.00,0.74,20.64,0.00,6.67,2.23,12.16,0.00,0.00,1.68
0,44.41,8.57,0.00,11.79,10.37,6.00,8.50,9.57,5.15,16.67,2.00,7.52,26.89,0.00,41.67,4.56,0.00,0.00,0.00,0.00,12.30,0.00,0.00,0.74,20.08,0.00,6.67,2.03,12.30,0.00,0.00,1.70
0,44.93,8.57,0.00,12.05,11.22,6.00,7.50,11.22,5.15,16.67,2.00,7.52,27.31,0.00,43.33,4.55,0.00,0.00,0.00,0.00,12.46,0.00,0.00,0.75,20.22,0.00,6.67,2.06,12.52,0.00,0.00,1.77
0,44.42,7.14,0.00,11.75,10.29,5.50,7.50,9.13,4.76,13.33,2.00,7.33,26.90,0.00,40.00,4.50,0.00,0.00,0.00,0.00,12.25,0.00,0.00,0.73,19.96,0.00,6.67,2.04,12.43,0.00,0.00,1.75
0,43.41,7.14,0.00,11.55,11.28,6.50,9.00,10.27,4.99,13.33,2.00,7.55,26.99,0.00,41.67,4.45,0.00,0.00,0.00,0.00,12.56,0.00,0.00,0.77,20.08,0.00,6.67,2.04,12.68,0.00,0.00,1.77
0,44.17,8.57,0.00,11.40,12.75,8.00,10.50,11.42,4.53,16.67,1.00,5.60,26.79,0.00,40.00,4.33,0.00,0.00,0.00,0.00,13.10,0.00,0.00,0.84,19.98,0.00,6.67,2.09,12.72,0.00,0.00,1.96
0,44.77,8.57,0.00,11.50,14.02,9.00,12.00,12.36,4.66,20.00,1.00,5.79,27.28,0.00,41.67,4.48,0.00,0.00,0.00,0.00,13.27,0.00,0.00,0.86,19.79,0.00,6.67,1.99,12.75,0.00,0.00,1.95
0,45.11,8.57,0.00,11.40,16.09,10.00,13.50,14.81,4.66,20.00,1.00,5.79,27.67,0.00,45.00,4.58,0.00,0.00,0.00,0.00,13.24,0.00,0.00,0.86,19.52,0.00,6.67,1.89,13.18,0.00,0.00,2.03
0,44.11,7.14,0.00,10.95,18.60,11.00,15.50,18.50,4.66,20.00,1.00,5.79,26.53,0.00,40.00,4.25,0.00,0.00,0.00,0.00,12.97,0.00,0.00,0.85,19.61,0.00,6.67,1.87,13.33,0.00,0.00,2.10
0,43.42,5.71,0.00,10.46,20.97,12.50,16.50,20.64,5.51,23.33,1.00,6.64,26.31,0.00,41.67,3.85,0.00,0.00,0.00,0.00,12.78,0.00,0.00,0.84,19.05,0.00,6.67,1.79,13.64,0.00,0.00,2.15
0,41.92,4.29,0.00,9.67,22.88,13.50,18.50,23.28,7.68,33.33,2.00,10.15,25.96,0.00,41.67,3.79,0.00,0.00,0.00,0.00,12.46,0.00,0.00,0.78,18.72,0.00,4.44,1.75,13.94,0.00,0.00,2.28
0,41.98,5.71,0.00,9.68,25.18,15.00,20.00,25.83,7.96,33.33,2.00,10.50,25.58,0.00,41.67,3.79,0.00,0.00,0.00,0.00,12.82,0.00,0.00,0.84,19.26,0.00,6.67,1.93,14.19,0.00,0.00,2.32
0,42.04,5.71,0.00,9.81,25.47,15.00,20.00,26.05,7.97,33.33,2.00,10.50,26.24,0.00,41.67,3.93,0.00,0.00,0.00,0.00,12.89,0.00,0.00,0.83,19.58,0.00,6.67,1.98,14.31,0.00,0.00,2.34
0,41.51,5.71,0.00,9.77,25.46,15.00,20.00,26.05,7.97,33.33,2.00,10.50,25.39,0.00,36.67,3.76,0.00,0.00,0.00,0.00,12.82,0.00,0.00,0.86,18.90,0.00,4.44,1.87,14.43,0.00,0.00,2.36
0,40.36,4.29,0.00,9.35,25.45,15.00,20.00,26.05,7.97,33.33,2.00,10.50,25.69,0.00,38.33,3.81,0.00,0.00,0.00,0.00,12.96,0.00,0.00,0.91,18.71,0.00,4.44,1.82,14.34,0.00,0.00,2.38
0,39.16,2.86,0.00,8.60,25.44,15.00,20.00,26.05,7.97,33.33,2.00,10.50,25.40,0.00,40.00,3.70,0.00,0.00,0.00,0.00,13.04,0.00,0.00,0.93,19.43,0.00,6.67,1.94,14.73,0.00,0.00,2.45
0,38.33,2.86,0.00,7.81,25.41,15.00,20.00,26.05,7.97,33.33,2.00,10.50,25.38,0.00,40.00,3.71,0.00,0.00,0.00,0.00,12.80,0.00,0.00,0.92,18.74,0.00,4.44,1.82,14.19,0.00,0.00,2.30
0,39.74,2.86,0.00,8.15,25.40,15.00,20.00,26.05,7.97,33.33,2.00,10.50,25.75,0.00,38.33,3.81,0.00,0.00,0.00,0.00,12.73,0.00,0.00,0.91,18.52,0.00,4.44,1.87,13.95,0.00,0.00,2.26
0,39.72,2.86,0.00,7.93,25.23,15.00,20.00,26.03,7.97,33.33,2.00,10.50,26.09,0.00,36.67,4.05,0.00,0.00,0.00,0.00,12.82,0.00,0.00,0.90,19.13,0.00,4.44,1.94,13.62,0.00,0.00,2.18
0,39.76,2.86,0.00,7.72,24.57,14.50,19.00,25.88,7.97,33.33,2.00,10.50,25.26,0.00,35.00,3.86,0.00,0.00,0.00,0.00,12.40,0.00,0.00,0.89,18.69,0.00,4.44,1.84,13.51,0.00,0.00,2.14
0,41.03,5.71,0.00,8.04,22.56,13.00,17.00,24.61,7.97,33.33,2.00,10.50,24.83,0.00,35.00,3.64,0.00,0.00,0.00,0.00,12.87,0.00,0.00,0.93,18.71,0.00,4.44,1.82,13.55,0.00,0.00,2.17
0,41.54,7.14,0.00,8.19,20.37,12.00,15.50,21.17,7.97,33.33,2.00,10.50,24.74,0.00,35.00,3.39,0.00,0.00,0.00,0.00,12.76,0.00,0.00,0.94,18.69,0.00,4.44,1.82,13.47,0.00,0.00,2.20
0,41.39,7.14,0.00,7.90,19.67,11.50,15.50,20.54,7.98,33.33,2.00,10.50,24.85,0.00,35.00,3.39,0.00,0.00,0.00,0.00,12.68,0.00,0.00,0.96,18.38,0.00,4.44,1.79,13.06,0.00,0.00,2.15
0,42.66,7.14,0.00,8.22,17.81,10.50,14.50,18.54,7.97,33.33,2.00,10.50,25.08,0.00,33.33,3.50,0.00,0.00,0.00,0.00,12.98,0.00,0.00,1.00,18.40,0.00,4.44,1.76,12.59,0.00,0.00,2.06
0,41.65,7.14,0.00,8.02,17.10,10.00,13.50,18.12,7.97,33.33,2.00,10.50,24.69,0.00,33.33,3.48,0.00,0.00,0.00,0.00,13.11,0.00,0.00,1.02,18.18,0.00,4.44,1.76,12.60,0.00,0.00,2.06
0,42.22,7.14,0.00,8.09,16.13,9.50,11.50,17.03,6.05,26.67,1.00,7.28,24.69,0.00,30.00,3.65,0.00,0.00,0.00,0.00,13.55,0.00,0.00,1.06,18.52,0.00,4.44,1.86,12.71,0.00,0.00,2.11
0,42.08,5.71,0.00,8.06,16.47,9.50,11.50,17.47,4.61,20.00,1.00,5.36,24.61,0.00,30.00,3.66,0.00,0.00,0.00,0.00,13.38,0.00,0.00,1.05,18.53,0.00,4.44,1.84,12.06,0.00,0.00,1.83
0,43.83,8.57,0.00,8.37,16.89,9.50,12.00,18.39,3.78,13.33,1.00,4.72,24.56,0.00,28.33,3.63,0.00,0.00,0.00,0.00,13.31,0.00,0.00,1.03,18.58,0.00,4.44,1.86,12.24,0.00,0.00,1.86
0,43.61,10.00,3.33,8.85,15.41,9.00,10.50,16.47,3.75,13.33,1.00,4.72,24.20,0.00,25.00,3.57,0.00,0.00,0.00,0.00,13.30,0.00,0.00,1.02,18.49,0.00,4.44,1.81,12.23,0.00,0.00,1.86
0,45.18,10.00,3.33,9.00,13.87,9.00,9.50,13.82,3.78,13.33,1.00,4.72,24.54,0.00,25.00,3.59,0.00,0.00,0.00,0.00,13.98,0.00,0.00,1.08,18.63,0.00,4.44,1.86,12.45,0.00,0.00,1.95
0,45.04,10.00,3.33,8.84,14.12,9.00,10.50,13.38,3.54,13.33,1.00,4.72,24.68,0.00,25.00,3.71,0.00,0.00,0.00,0.00,14.06,0.00,0.00,1.08,18.67,0.00,4.44,1.88,12.00,0.00,0.00,1.84
0,45.08,10.00,3.33,8.60,12.21,8.00,8.50,11.35,2.49,13.33,0.50,3.54,24.68,0.00,26.67,3.70,0.00,0.00,0.00,0.00,13.93,0.00,0.00,1.06,18.39,0.00,4.44,1.83,11.50,0.00,0.00,1.71
0,43.87,8.57,3.33,8.17,10.24,7.00,7.00,8.98,1.79,10.00,0.50,1.22,25.73,0.00,30.00,3.80,0.00,0.00,0.00,0.00,13.97,0.00,0.00,1.03,18.06,0.00,2.22,1.72,12.40,0.00,0.00,2.02
0,44.12,8.57,3.33,8.22,11.23,7.50,9.00,9.59,2.01,10.00,0.50,1.26,25.46,0.00,31.67,3.76,0.00,0.00,0.00,0.00,13.97,0.00,0.00,1.03,18.04,0.00,2.22,1.74,11.97,0.00,0.00,1.92
0,44.50,8.57,3.33,8.19,13.31,9.00,10.50,11.89,2.01,10.00,0.50,1.26,25.96,0.00,33.33,3.87,0.00,0.00,0.00,0.00,13.67,0.00,0.00,0.98,18.10,0.00,2.22,1.67,12.01,0.00,0.00,1.94
0,44.86,8.57,3.33,8.18,16.11,10.50,11.50,15.52,2.01,10.00,0.50,1.26,26.11,0.00,35.00,3.96,0.00,0.00,0.00,0.00,13.30,0.00,0.00,0.94,18.02,0.00,2.22,1.68,12.32,0.00,0.00,1.97
0,45.52,8.57,3.33,8.17,17.67,11.50,13.00,17.65,3.51,16.67,1.00,2.52,26.19,0.00,33.33,3.91,0.00,0.00,0.00,0.00,13.01,0.00,0.00,0.87,17.93,0.00,0.00,1.59,12.31,0.00,0.00,1.92
0,46.87,10.00,3.33,8.49,19.30,12.50,14.50,18.78,6.11,26.67,2.00,6.09,26.24,0.00,33.33,3.89,0.00,0.00,0.00,0.00,12.83,0.00,0.00,0.84,18.21,0.00,0.00,1.73,12.08,0.00,0.00,1.89
0,45.93,11.43,3.33,8.21,22.21,14.00,16.50,21.96,6.98,30.00,2.50,8.61,26.26,0.00,35.00,3.84,0.00,0.00,0.00,0.00,12.87,0.00,0.00,0.83,18.32,0.00,0.00,1.69,12.15,0.00,0.00,1.92
0,45.85,11.43,3.33,7.95,23.08,14.50,17.00,23.68,7.02,30.00,2.50,8.61,26.65,0.00,38.33,3.88,0.00,0.00,0.00,0.00,13.17,0.00,0.00,0.84,18.94,0.00,0.00,1.71,12.51,0.00,0.00,2.06
0,46.83,11.43,3.33,8.29,23.11,14.50,17.00,23.69,7.02,30.00,2.50,8.61,26.43,0.00,36.67,3.80,0.00,0.00,0.00,0.00,13.14,0.00,0.00,0.81,18.81,0.00,0.00,1.72,12.46,0.00,0.00,2.02
0,44.80,8.57,3.33,7.65,23.10,14.50,17.00,23.69,7.01,30.00,2.50,8.61,28.24,0.00,41.67,4.24,0.00,0.00,0.00,0.00,13.10,0.00,0.00,0.78,18.95,0.00,0.00,1.71,12.05,0.00,0.00,1.87
0,44.82,8.57,3.33,7.55,23.10,14.50,17.00,23.69,7.01,30.00,2.50,8.61,27.75,0.00,41.67,4.17,0.00,0.00,0.00,0.00,13.17,0.00,0.00,0.74,19.03,0.00,0.00,1.73,12.43,0.00,0.00,1.84
0,43.69,7.14,3.33,7.21,23.10,14.50,17.00,23.69,7.00,30.00,2.50,8.61,27.15,0.00,40.00,4.08,0.00,0.00,0.00,0.00,13.35,0.00,0.00,0.74,19.40,0.00,0.00,1.78,12.94,0.00,0.00,2.08
0,41.86,7.14,3.33,6.89,23.10,14.50,17.00,23.69,7.01,30.00,2.50,8.61,27.22,0.00,43.33,4.01,0.00,0.00,0.00,0.00,13.52,0.00,0.00,0.73,19.56,0.00,0.00,1.78,13.32,0.00,0.00,2.10
0,41.70,7.14,3.33,6.71,23.09,14.50,17.00,23.69,7.01,30.00,2.50,8.61,27.58,0.00,43.33,4.16,0.00,0.00,0.00,0.00,13.34,0.00,0.00,0.70,19.73,0.00,0.00,1.82,13.49,0.00,0.00,2.14
0,41.06,7.14,3.33,6.66,22.77,14.00,17.00,23.61,7.00,30.00,2.50,8.61,27.64,0.00,48.33,4.06,0.00,0.00,0.00,0.00,13.81,0.00,0.00,0.74,19.22,0.00,0.00,1.76,13.97,0.00,0.00,2.18
0,40.97,7.14,3.33,6.63,20.95,13.00,15.50,21.79,6.99,30.00,2.50,8.61,28.18,0.00,51.67,4.06,0.00,0.00,0.00,0.00,13.57,0.00,0.00,0.68,19.30,0.00,0.00,1.69,14.00,0.00,0.00,2.13
0,39.09,5.71,3.33,5.96,19.18,12.00,13.50,20.38,6.99,30.00,2.50,8.61,28.60,0.00,53.33,4.27,0.00,0.00,0.00,0.00,13.77,0.00,0.00,0.68,19.88,0.00,0.00,1.75,13.93,0.00,0.00,2.08
0,38.12,4.29,0.00,5.52,17.67,10.50,13.00,18.73,7.00,30.00,2.50,8.61,28.40,0.00,53.33,4.27,0.00,0.00,0.00,0.00,13.84,0.00,0.00,0.68,19.98,0.00,0.00,1.78,13.90,0.00,0.00,2.11
0,38.23,5.71,0.00,5.69,16.78,10.00,12.00,18.16,6.97,30.00,2.50,8.61,28.60,0.00,55.00,4.27,0.00,0.00,0.00,0.00,13.49,0.00,0.00,0.63,20.00,0.00,0.00,1.73,13.86,0.00,0.00,2.14
0,39.15,5.71,0.00,5.97,15.35,9.00,10.50,16.73,6.97,30.00,2.50,8.61,28.26,0.00,55.00,4.19,0.00,0.00,0.00,0.00,13.65,0.00,0.00,0.65,20.41,0.00,0.00,1.80,13.99,0.00,0.00,2.19
0,40.25,5.71,0.00,6.45,15.28,9.00,10.50,16.61,6.10,23.33,2.00,7.71,28.19,0.00,51.67,4.19,0.00,0.00,0.00,0.00,13.68,0.00,0.00,0.65,20.29,0.00,0.00,1.80,14.03,0.00,0.00,2.18
0,40.28,5.71,0.00,6.58,15.85,9.50,11.00,16.80,5.70,20.00,2.00,7.41,27.53,0.00,48.33,4.08,0.00,0.00,0.00,0.00,13.66,0.00,0.00,0.67,20.48,0.00,0.00,1.80,13.16,0.00,0.00,1.92
0,40.00,5.71,0.00,6.52,14.58,8.50,9.00,16.14,5.48,20.00,2.00,7.37,27.56,0.00,46.67,4.14,0.00,0.00,0.00,0.00,13.98,0.00,0.00,0.68,20.84,0.00,0.00,2.01,13.39,0.00,0.00,1.89
0,40.81,7.14,0.00,6.83,13.41,8.00,8.50,14.09,5.43,20.00,2.00,7.36,26.40,0.00,46.67,3.93,0.00,0.00,0.00,0.00,14.13,0.00,0.00,0.69,21.00,0.00,0.00,2.08,13.46,0.00,0.00,1.91
0,40.94,7.14,0.00,6.97,11.72,7.50,8.50,11.70,5.43,20.00,2.00,7.36,26.40,0.00,48.33,3.79,0.00,0.00,0.00,0.00,14.37,0.00,0.00,0.71,20.78,0.00,0.00,2.06,13.62,0.00,0.00,2.08
0,40.28,7.14,0.00,6.92,11.65,8.00,8.50,10.09,4.29,13.33,1.50,6.19,27.25,0.00,50.00,4.01,0.00,0.00,0.00,0.00,14.13,0.00,0.00,0.69,21.00,0.00,0.00,2.11,13.56,0.00,0.00,2.15
0,38.43,5.71,0.00,6.73,11.53,7.50,9.00,10.01,3.88,13.33,2.00,5.71,27.47,0.00,53.33,4.04,0.00,0.00,0.00,0.00,14.35,0.00,0.00,0.72,20.50,0.00,0.00,1.97,13.91,0.00,0.00,2.21
0,37.03,4.29,0.00,6.34,10.96,7.50,8.50,8.90,2.61,13.33,1.00,2.81,26.73,0.00,50.00,3.90,0.00,0.00,0.00,0.00,14.41,0.00,0.00,0.75,20.20,0.00,0.00,1.92,13.74,0.00,0.00,2.19
0,36.93,4.29,0.00,6.45,11.10,7.50,9.50,8.84,2.61,13.33,1.00,2.81,26.73,0.00,48.33,3.84,0.00,0.00,0.00,0.00,14.20,0.00,0.00,0.74,20.59,0.00,2.22,2.15,13.42,0.00,0.00,2.04
0,36.16,4.29,0.00,6.45,13.09,9.00,11.50,10.46,2.60,13.33,1.00,2.81,25.99,0.00,45.00,3.67,0.00,0.00,0.00,0.00,14.32,0.00,0.00,0.75,20.45,0.00,2.22,2.17,13.60,0.00,0.00,2.09
0,36.35,4.29,0.00,6.35,14.62,10.00,12.00,11.61,2.61,13.33,1.00,2.81,24.39,0.00,40.00,3.32,0.00,0.00,0.00,0.00,14.19,0.00,0.00,0.76,20.06,0.00,2.22,2.14,14.01,0.00,0.00,2.22
0,36.11,4.29,0.00,6.52,17.30,11.50,13.50,16.50,3.82,20.00,1.50,4.08,25.27,0.00,43.33,3.58,0.00,0.00,0.00,0.00,14.40,0.00,0.00,0.77,20.87,0.00,2.22,2.24,13.80,0.00,0.00,2.22
0,36.62,5.71,0.00,6.75,18.89,12.50,15.00,18.02,5.91,26.67,2.50,7.75,25.60,0.00,43.33,3.62,0.00,0.00,0.00,0.00,14.10,0.00,0.00,0.76,20.66,0.00,2.22,2.23,13.48,0.00,0.00,2.06
0,37.40,7.14,0.00,6.73,20.99,13.50,16.50,20.53,6.04,26.67,2.50,7.80,26.06,0.00,46.67,3.60,0.00,0.00,0.00,0.00,14.05,0.00,0.00,0.77,20.19,0.00,2.22,2.16,13.74,0.00,0.00,2.18
0,39.21,8.57,0.00,7.46,22.77,14.50,18.00,22.38,6.07,26.67,2.50,7.80,25.70,0.00,46.67,3.52,0.00,0.00,0.00,0.00,13.88,0.00,0.00,0.75,20.18,0.00,2.22,2.23,13.60,0.00,0.00,2.12
0,40.84,10.00,0.00,7.88,22.83,14.50,18.00,22.38,6.07,26.67,2.50,7.80,25.32,0.00,41.67,3.59,0.00,0.00,0.00,0.00,13.12,0.00,0.00,0.69,19.98,0.00,2.22,2.21,13.15,0.00,0.00,2.03
0,41.79,10.00,0.00,8.43,22.81,14.50,18.00,22.38,6.07,26.67,2.50,7.80,26.18,0.00,41.67,3.77,0.00,0.00,0.00,0.00,12.96,0.00,0.00,0.68,19.92,0.00,2.22,2.25,12.89,0.00,0.00,2.02
0,41.21,10.00,0.00,8.35,22.80,14.50,18.00,22.38,6.07,26.67,2.50,7.80,25.37,0.00,36.67,3.58,0.00,0.00,0.00,0.00,12.80,0.00,0.00,0.67,19.69,0.00,2.22,2.28,12.61,0.00,0.00,2.01
0,41.26,8.57,0.00,8.69,22.80,14.50,18.00,22.38,6.07,26.67,2.50,7.80,25.08,0.00,40.00,3.45,0.00,0.00,0.00,0.00,12.38,0.00,0.00,0.65,19.54,0.00,2.22,2.22,12.61,0.00,0.00,2.01
0,40.99,7.14,0.00,8.67,22.78,14.50,18.00,22.38,6.07,26.67,2.50,7.80,24.96,0.00,38.33,3.43,0.00,0.00,0.00,0.00,12.38,0.00,0.00,0.65,19.40,0.00,2.22,2.21,12.19,0.00,0.00,1.90
0,41.33,8.57,0.00,8.84,22.55,14.00,18.00,22.36,6.07,26.67,2.50,7.80,25.25,0.00,38.33,3.49,0.00,0.00,0.00,0.00,12.20,0.00,0.00,0.64,19.33,0.00,2.22,2.23,12.46,0.00,0.00,1.84
0,41.43,10.00,0.00,8.89,22.35,14.00,18.00,22.30,6.07,26.67,2.50,7.80,25.13,0.00,38.33,3.45,0.00,0.00,0.00,0.00,12.09,0.00,0.00,0.65,19.76,0.00,2.22,2.29,12.29,0.00,0.00,1.80
0,41.17,10.00,0.00,8.95,21.78,13.50,17.50,22.13,6.07,26.67,2.50,7.80,25.25,0.00,40.00,3.60,0.00,0.00,0.00,0.00,11.73,0.00,0.00,0.61,19.55,0.00,2.22,2.26,11.87,0.00,0.00,1.75
0,41.39,10.00,0.00,9.03,21.65,13.50,17.50,22.10,6.07,26.67,2.50,7.80,25.17,0.00,40.00,3.64,0.00,0.00,0.00,0.00,11.50,0.00,0.00,0.59,19.75,0.00,4.44,2.24,12.09,0.00,0.00,1.79
0,41.83,8.57,0.00,9.40,21.17,13.00,17.00,21.97,6.08,26.67,2.50,7.80,25.67,0.00,40.00,3.70,0.00,0.00,0.00,0.00,11.44,0.00,0.00,0.57,20.05,0.00,4.44,2.16,11.94,0.00,0.00,1.75
0,41.30,8.57,0.00,9.50,20.05,12.00,15.50,21.51,6.07,26.67,2.50,7.80,25.74,0.00,40.00,3.75,0.00,0.00,0.00,0.00,11.29,0.00,0.00,0.55,20.28,0.00,4.44,2.13,11.60,0.00,0.00,1.60
0,42.37,8.57,0.00,9.67,17.76,10.50,13.50,19.74,6.07,26.67,2.50,7.80,24.68,0.00,38.33,3.51,0.00,0.00,0.00,0.00,11.61,0.00,0.00,0.56,20.08,0.00,4.44,2.28,11.42,0.00,0.00,1.47
0,43.32,8.57,0.00,9.83,16.50,10.00,12.50,17.62,5.70,23.33,2.00,7.80,24.32,0.00,35.00,3.58,0.00,0.00,0.00,0.00,11.55,0.00,0.00,0.55,20.30,0.00,4.44,2.32,11.33,0.00,0.00,1.44
0,43.97,10.00,0.00,10.42,15.51,9.00,12.00,16.46,4.08,13.33,1.50,5.15,24.87,0.00,33.33,3.85,0.00,0.00,0.00,0.00,11.65,0.00,0.00,0.55,20.74,0.00,4.44,2.40,11.17,0.00,0.00,1.43
0,44.98,10.00,0.00,10.83,15.45,9.00,12.00,16.28,3.88,13.33,1.50,5.00,25.35,0.00,36.67,4.05,0.00,0.00,0.00,0.00,11.79,0.00,0.00,0.55,20.23,0.00,2.22,2.20,11.70,0.00,0.00,1.54
0,45.81,11.43,0.00,11.27,15.48,9.00,11.50,16.33,3.88,13.33,1.50,5.00,25.81,0.00,40.00,4.14,0.00,0.00,0.00,0.00,11.62,0.00,0.00,0.55,20.38,0.00,2.22,2.15,11.28,0.00,0.00,1.47
0,45.90,11.43,0.00,11.35,14.77,9.00,11.50,15.54,3.88,13.33,1.50,5.00,25.81,0.00,40.00,4.12,0.00,0.00,0.00,0.00,11.56,0.00,0.00,0.53,20.19,0.00,2.22,2.11,11.12,0.00,0.00,1.40
0,46.17,11.43,0.00,11.40,13.60,8.50,11.00,12.83,2.94,10.00,1.00,3.97,26.16,0.00,40.00,4.26,0.00,0.00,0.00,0.00,11.70,0.00,0.00,0.58,20.28,0.00,4.44,2.24,10.97,0.00,0.00,1.30
0,45.68,10.00,0.00,11.23,12.62,8.00,10.00,11.61,2.96,10.00,1.00,3.83,26.60,0.00,41.67,4.37,0.00,0.00,0.00,0.00,11.37,0.00,0.00,0.53,20.22,0.00,4.44,2.23,11.49,0.00,0.00,1.47
0,46.75,10.00,0.00,11.67,12.07,7.50,9.50,10.79,4.21,20.00,1.00,5.14,27.92,0.00,41.67,5.03,0.00,0.00,0.00,0.00,11.55,0.00,0.00,0.54,21.15,0.00,4.44,2.35,11.27,0.00,0.00,1.37
0,46.00,7.14,0.00,11.41,12.17,7.50,9.50,10.97,4.55,23.33,1.00,5.58,28.16,0.00,40.00,5.15,0.00,0.00,0.00,0.00,11.54,0.00,0.00,0.53,20.74,0.00,4.44,2.23,11.16,0.00,0.00,1.36
0,44.92,8.57,0.00,11.64,13.37,8.50,11.00,12.08,4.55,23.33,1.00,5.58,28.17,0.00,41.67,5.10,0.00,0.00,0.00,0.00,11.78,0.00,0.00,0.54,20.71,0.00,4.44,2.19,11.20,0.00,0.00,1.36
0,43.26,7.14,0.00,11.03,15.50,9.50,12.50,15.04,4.54,23.33,1.00,5.58,27.59,0.00,41.67,4.76,0.00,0.00,0.00,0.00,11.94,0.00,0.00,0.55,20.47,0.00,4.44,2.11,11.29,0.00,0.00,1.36
0,44.63,10.00,0.00,11.47,18.08,11.00,14.00,17.99,5.35,26.67,1.00,6.35,28.62,0.00,45.00,5.12,0.00,0.00,0.00,0.00,11.96,0.00,0.00,0.55,21.47,0.00,8.89,2.36,11.52,0.00,0.00,1.37
0,44.97,10.00,0.00,11.60,20.12,12.00,16.00,21.05,7.51,36.67,2.00,9.85,28.41,0.00,41.67,5.20,0.00,0.00,0.00,0.00,12.02,0.00,0.00,0.55,21.10,0.00,8.89,2.33,11.59,0.00,0.00,1.35
0,44.00,10.00,0.00,11.27,22.56,13.50,17.50,23.93,7.80,36.67,2.00,10.21,29.17,0.00,41.67,5.45,0.00,0.00,0.00,0.00,12.25,0.00,0.00,0.56,21.18,0.00,8.89,2.34,11.95,0.00,0.00,1.44
0,44.52,8.57,0.00,11.33,22.86,13.50,17.50,24.18,7.81,36.67,2.00,10.21,29.14,0.00,45.00,5.49,0.00,0.00,0.00,0.00,12.12,0.00,0.00,0.55,21.12,0.00,8.89,2.32,11.60,0.00,0.00,1.39
0,43.78,8.57,0.00,11.44,22.87,13.50,17.50,24.18,7.84,36.67,2.00,10.21,29.44,0.00,48.33,5.51,0.00,0.00,0.00,0.00,12.38,0.00,0.00,0.58,21.52,0.00,8.89,2.29,11.84,0.00,0.00,1.45
0,43.47,7.14,0.00,10.82,22.86,13.50,17.50,24.18,7.85,36.67,2.00,10.21,28.93,0.00,48.33,5.26,0.00,0.00,0.00,0.00,12.32,0.00,0.00,0.59,21.26,0.00,8.89,2.30,12.56,0.00,0.00,1.60
0,44.36,7.14,0.00,11.07,22.85,13.50,17.50,24.18,7.85,36.67,2.00,10.21,29.07,0.00,50.00,5.20,0.00,0.00,0.00,0.00,13.24,0.00,0.00,0.65,21.09,0.00,6.67,2.35,12.24,0.00,0.00,1.55
0,47.21,11.43,6.67,12.39,22.85,13.50,17.50,24.18,7.85,36.67,2.00,10.21,29.76,0.00,51.67,5.69,0.00,0.00,0.00,0.00,14.44,0.00,0.00,0.81,21.30,0.00,6.67,2.51,12.24,0.00,0.00,1.56
0,51.22,14.29,10.00,15.45,22.85,13.50,17.50,24.18,7.85,36.67,2.00,10.21,29.98,0.00,50.00,5.66,0.00,0.00,0.00,0.00,15.42,0.00,0.00,1.11,21.35,0.00,6.67,2.58,12.45,0.00,0.00,1.62
0,54.72,15.71,13.33,18.29,22.86,13.50,17.50,24.18,7.85,36.67,2.00,10.21,30.54,0.00,50.00,5.94,0.00,0.00,0.00,0.00,18.01,6.67,0.00,1.82,21.41,0.00,6.67,2.51,12.98,0.00,0.00,1.78
0,55.89,17.14,13.33,18.89,22.76,13.50,17.00,24.18,7.85,36.67,2.00,10.21,31.15,0.00,51.67,5.99,0.00,0.00,0.00,0.00,19.10,6.67,0.00,2.13,21.66,0.00,6.67,2.52,12.91,0.00,0.00,1.79
0,56.19,18.57,13.33,18.52,22.00,12.50,16.00,23.98,7.86,36.67,2.00,10.21,31.73,0.00,55.00,6.13,0.00,0.00,0.00,0.00,19.88,6.67,0.00,2.25,21.88,0.00,6.67,2.65,13.21,0.00,0.00,1.83
0,59.99,21.43,13.33,21.57,20.30,12.00,14.50,22.04,7.86,36.67,2.00,10.21,32.75,0.00,56.67,6.43,0.00,0.00,0.00,0.00,20.99,6.67,0.00,2.75,23.91,0.00,13.33,3.42,12.96,0.00,0.00,1.78
0,63.51,24.29,16.67,23.46,18.42,10.50,13.00,20.27,7.85,36.67,2.00,10.21,32.91,0.00,53.33,6.95,0.00,0.00,0.00,0.00,23.30,10.00,0.00,3.32,24.56,0.00,15.56,3.58,13.67,0.00,0.00,1.91
0,66.22,27.14,16.67,25.45,17.57,9.50,12.00,19.77,7.85,36.67,2.00,10.21,34.54,0.00,55.00,7.58,0.00,0.00,0.00,0.00,25.87,13.33,0.00,4.47,26.43,0.00,22.22,4.03,13.68,0.00,0.00,1.92
0,70.78,28.57,20.00,28.53,17.00,9.00,11.50,19.55,7.85,36.67,2.00,10.21,37.58,10.00,58.33,9.49,0.16,0.00,0.00,0.05,26.70,13.33,0.00,4.60,30.86,4.44,31.11,5.53,14.18,0.00,0.00,2.04
0,71.71,28.57,20.00,28.60,15.44,8.50,11.00,17.34,5.92,26.67,1.00,6.99,39.03,10.00,65.00,9.88,1.06,0.50,2.50,1.43,27.78,13.33,0.00,4.75,37.44,11.11,40.00,10.24,14.08,0.00,0.00,1.98
0,73.55,31.43,20.00,29.14,14.73,9.00,10.00,16.77,4.58,20.00,1.00,5.26,37.07,10.00,60.00,9.36,1.63,1.00,5.00,4.00,30.36,16.67,0.00,5.97,46.93,17.78,51.11,20.88,14.44,0.00,0.00,2.15
0,77.82,35.71,20.00,32.26,13.91,8.50,9.50,14.91,3.77,13.33,1.00,4.65,37.49,10.00,60.00,9.21,2.57,1.50,10.00,6.44,35.12,20.00,5.00,8.68,54.01,22.22,55.56,28.97,15.40,0.00,0.00,2.46
0,82.02,40.00,23.33,34.73,13.92,8.50,9.50,14.86,3.74,13.33,1.00,4.64,40.23,10.00,63.33,11.18,2.99,2.00,10.00,7.23,39.86,33.33,5.00,9.86,59.38,24.44,62.22,33.45,16.25,0.00,0.00,2.81
0,86.23,44.29,30.00,36.40,12.74,8.50,9.00,12.94,3.74,13.33,1.00,4.64,44.26,20.00,68.33,12.62,5.32,4.00,20.00,14.71,44.35,40.00,10.00,12.76,63.90,31.11,66.67,35.13,20.03,10.00,8.33,6.05
1,90.75,48.57,36.67,39.30,13.14,8.50,9.50,12.79,5.17,23.33,2.00,7.03,50.31,35.00,71.67,17.91,5.75,4.50,20.00,15.57,47.92,50.00,15.00,13.59,71.33,40.00,71.11,41.44,21.12,13.33,8.33,6.84
1,94.32,54.29,43.33,40.36,11.35,7.50,7.50,10.74,3.43,13.33,1.00,5.20,55.95,45.00,76.67,23.43,7.95,7.00,27.50,20.49,55.06,63.33,30.00,16.99,77.90,46.67,82.22,46.07,23.54,20.00,8.33,8.26
1,101.22,58.57,50.00,46.44,9.73,6.50,6.00,8.28,2.62,10.00,1.00,2.78,57.68,50.00,81.67,24.54,9.29,8.50,32.50,23.64,58.67,66.67,30.00,17.63,82.05,51.11,86.67,49.21,27.96,30.00,25.00,14.99
1,104.34,60.00,50.00,48.31,10.91,7.50,7.50,8.70,2.59,10.00,1.00,2.77,59.12,50.00,80.00,25.93,10.19,9.50,37.50,25.48,62.41,70.00,35.00,20.99,90.82,62.22,97.78,54.95,30.09,33.33,25.00,15.71
1,107.43,64.29,56.67,49.46,12.00,8.50,8.50,10.50,3.94,16.67,1.50,4.44,63.31,60.00,85.00,27.34,10.58,10.00,37.50,25.77,66.06,76.67,35.00,22.17,95.58,66.67,102.22,63.75,32.59,36.67,25.00,19.32
1,113.43,70.00,70.00,52.79,12.20,8.50,8.50,10.56,6.03,23.33,2.50,8.20,70.61,65.00,88.33,34.33,12.02,11.00,42.50,29.85,68.17,80.00,35.00,23.23,102.77,68.89,111.11,73.02,33.46,40.00,25.00,19.76
1,116.42,74.29,73.33,55.77,12.21,8.50,8.50,10.56,6.15,23.33,2.50,8.25,74.31,75.00,91.67,37.29,13.65,12.50,45.00,35.04,71.67,83.33,40.00,25.10,107.54,73.33,120.00,77.01,35.02,43.33,25.00,20.20
1,119.82,75.71,73.33,59.26,12.21,8.50,8.50,10.56,6.15,23.33,2.50,8.25,76.91,85.00,93.33,39.22,13.89,12.50,45.00,35.51,73.48,83.33,40.00,25.58,114.25,84.44,128.89,80.00,36.20,46.67,25.00,20.93
1,117.41,72.86,70.00,56.74,12.22,8.50,8.50,10.56,6.15,23.33,2.50,8.25,78.64,85.00,95.00,40.10,13.90,12.50,45.00,35.51,74.04,86.67,40.00,25.70,123.61,93.33,137.78,89.57,37.46,50.00,25.00,21.61
1,117.59,72.86,66.67,56.93,12.21,8.50,8.50,10.56,6.15,23.33,2.50,8.25,81.43,90.00,98.33,41.83,15.33,13.50,50.00,39.43,74.09,83.33,40.00,25.74,128.72,97.78,144.44,95.37,39.95,50.00,25.00,22.99
1,118.86,74.29,70.00,56.88,12.21,8.50,8.50,10.56,6.16,23.33,2.50,8.25,82.93,90.00,101.67,42.91,16.74,15.00,55.00,43.21,76.13,93.33,45.00,26.70,130.91,102.22,148.89,96.63,42.02,53.33,25.00,25.50
1,125.34,80.00,80.00,59.89,12.22,8.50,8.50,10.56,6.15,23.33,2.50,8.25,85.15,90.00,108.33,43.67,18.12,16.00,57.50,47.91,76.89,93.33,45.00,26.67,132.18,102.22,151.11,96.98,43.08,53.33,25.00,25.88
1,128.07,81.43,86.67,62.66,12.22,8.50,8.50,10.56,6.15,23.33,2.50,8.25,89.27,100.00,105.00,48.58,19.51,17.50,62.50,51.46,78.09,100.00,45.00,27.07,134.52,104.44,157.78,97.91,43.45,53.33,25.00,26.14
1,127.34,82.86,83.33,62.01,12.33,8.50,8.50,10.56,6.15,23.33,2.50,8.25,93.80,115.00,111.67,50.81,21.77,19.50,70.00,57.63,82.19,103.33,50.00,29.16,138.05,108.89,160.00,100.66,46.49,56.67,33.33,29.89
1,126.17,82.86,83.33,59.76,13.14,9.00,9.50,11.05,6.15,23.33,2.50,8.25,97.24,120.00,115.00,53.07,23.39,21.00,75.00,62.21,83.52,106.67,55.00,30.13,142.42,115.56,164.44,103.75,50.77,63.33,33.33,32.94
1,126.24,84.29,86.67,59.68,15.30,10.50,11.00,13.36,6.16,23.33,2.50,8.25,96.53,120.00,113.33,53.20,24.55,21.50,77.50,66.00,84.21,106.67,55.00,30.27,141.00,115.56,162.22,103.33,53.06,66.67,41.67,36.14
1,128.54,90.00,86.67,60.33,16.57,11.00,12.00,15.06,6.15,23.33,2.50,8.25,97.09,125.00,108.33,53.61,26.01,22.50,80.00,70.07,87.18,113.33,55.00,31.89,139.52,113.33,155.56,103.17,56.91,70.00,50.00,42.48
1,130.73,90.00,93.33,63.67,16.36,10.50,12.00,15.07,6.14,23.33,2.50,8.25,100.11,125.00,116.67,54.71,26.05,22.50,80.00,70.78,87.90,113.33,60.00,32.33,133.13,111.11,153.33,94.54,56.81,73.33,50.00,42.73
1,132.39,92.86,96.67,63.04,15.75,10.00,11.50,15.00,8.07,33.33,3.50,11.46,104.52,130.00,123.33,56.99,27.00,23.00,80.00,73.25,89.05,123.33,60.00,32.44,130.76,111.11,157.78,91.00,59.90,83.33,58.33,45.62
1,132.24,90.00,96.67,62.94,13.70,8.50,9.50,13.43,8.44,33.33,3.50,11.78,106.27,135.00,126.67,58.38,28.11,24.00,82.50,76.28,89.81,120.00,60.00,33.69,130.38,113.33,155.56,87.26,62.80,90.00,58.33,50.03
1,133.58,90.00,93.33,64.56,12.51,7.50,8.50,12.12,8.46,33.33,3.50,11.78,107.88,140.00,121.67,62.95,29.23,25.50,87.50,78.88,87.99,113.33,60.00,33.08,130.06,111.11,157.78,87.27,63.21,93.33,50.00,50.31
1,136.98,88.57,96.67,66.98,11.85,6.50,8.00,11.56,7.78,30.00,2.50,11.06,106.26,125.00,120.00,63.11,29.63,25.50,90.00,80.70,91.71,120.00,60.00,35.82,129.95,106.67,157.78,89.42,64.88,96.67,50.00,51.02
1,140.78,91.43,106.67,69.12,12.23,7.00,8.00,11.89,9.01,33.33,3.50,12.75,105.74,125.00,121.67,63.11,28.48,24.00,85.00,78.69,86.74,110.00,40.00,33.18,128.18,106.67,157.78,85.25,69.77,106.67,75.00,55.70
1,144.35,94.29,116.67,71.42,12.24,7.00,8.00,11.89,9.00,33.33,3.50,12.76,110.41,140.00,121.67,64.47,29.45,24.00,90.00,83.10,89.64,120.00,45.00,34.34,130.08,113.33,166.67,84.59,64.65,93.33,58.33,49.99
1,142.49,94.29,116.67,67.71,10.13,6.00,6.50,9.59,9.01,33.33,3.50,12.76,111.43,145.00,123.33,67.23,27.94,22.00,82.50,79.12,86.62,113.33,40.00,31.41,124.52,100.00,160.00,82.49,65.01,93.33,58.33,50.36
1,143.89,97.14,116.67,67.97,8.07,4.50,5.50,7.28,7.94,30.00,3.00,11.40,114.42,150.00,123.33,69.99,29.89,23.00,90.00,85.36,87.40,116.67,40.00,32.04,121.27,97.78,162.22,72.09,63.49,90.00,58.33,48.03
1,143.19,94.29,110.00,68.59,7.56,4.00,5.00,7.06,5.69,20.00,2.00,7.64,109.34,145.00,123.33,63.82,28.95,22.50,87.50,83.43,86.66,113.33,40.00,31.65,118.99,97.78,162.22,70.89,67.33,100.00,66.67,52.21
1,143.49,95.71,110.00,67.94,7.55,4.00,5.00,7.06,5.42,20.00,2.00,7.29,108.10,145.00,123.33,63.26,28.98,23.00,90.00,82.65,86.01,116.67,35.00,30.46,117.16,100.00,160.00,64.68,68.98,106.67,66.67,55.39
1,147.39,100.00,116.67,69.10,7.56,4.00,5.00,7.06,5.42,20.00,2.00,7.29,108.84,150.00,126.67,63.35,28.47,22.50,90.00,81.42,85.42,120.00,35.00,30.07,113.03,91.11,160.00,61.16,68.23,100.00,66.67,57.05
1,144.37,97.14,116.67,67.02,7.55,4.00,5.00,7.06,5.44,20.00,2.00,7.29,106.95,150.00,123.33,62.60,29.41,23.00,92.50,84.47,86.56,126.67,35.00,30.76,106.64,84.44,155.56,52.38,69.01,100.00,66.67,57.66
1,144.78,100.00,120.00,67.47,7.91,4.50,5.50,7.13,5.44,20.00,2.00,7.29,109.08,155.00,126.67,63.37,29.54,23.50,92.50,84.74,88.21,126.67,35.00,30.94,103.49,80.00,157.78,47.72,68.26,100.00,66.67,57.51
1,144.92,100.00,123.33,68.53,9.54,5.00,6.50,8.92,5.44,20.00,2.00,7.29,108.39,160.00,128.33,62.21,28.59,22.50,87.50,82.10,87.51,123.33,40.00,31.20,103.49,75.56,155.56,48.81,67.98,100.00,75.00,56.84
1,146.85,100.00,126.67,70.65,10.20,5.50,6.50,9.49,5.44,20.00,2.00,7.29,108.86,160.00,125.00,63.25,27.74,22.50,87.50,78.22,87.83,123.33,40.00,31.04,104.58,75.56,157.78,49.23,70.80,113.33,83.33,59.33
1,143.85,98.57,126.67,67.74,10.22,5.50,6.50,9.49,5.44,20.00,2.00,7.29,103.91,150.00,123.33,58.89,26.85,22.00,82.50,75.37,91.40,130.00,45.00,33.32,104.07,75.56,153.33,49.47,71.39,120.00,83.33,60.88
1,146.42,98.57,133.33,69.90,10.22,5.50,6.50,9.49,5.97,23.33,2.00,7.54,102.53,145.00,118.33,58.48,25.44,20.50,77.50,71.49,90.25,133.33,40.00,32.96,104.31,73.33,151.11,49.52,70.57,116.67,75.00,59.13
1,151.85,101.43,143.33,73.10,9.85,5.50,6.00,9.47,6.31,23.33,2.00,7.66,98.72,135.00,121.67,55.36,23.17,18.50,70.00,65.74,90.04,133.33,45.00,33.39,101.25,66.67,151.11,46.70,68.53,123.33,75.00,55.82
1,152.76,104.29,140.00,74.31,7.74,4.00,4.00,8.06,6.34,23.33,2.00,7.67,95.02,125.00,120.00,52.77,21.92,18.00,67.50,61.46,89.25,133.33,45.00,33.04,101.38,66.67,148.89,46.24,66.23,120.00,66.67,52.98
1,154.49,102.86,143.33,76.71,5.81,3.00,2.50,5.19,6.34,23.33,2.00,7.67,95.46,125.00,120.00,52.99,20.73,17.00,65.00,57.06,86.74,130.00,45.00,31.55,99.46,64.44,151.11,43.95,63.42,116.67,58.33,47.55
1,152.66,102.86,140.00,74.33,5.82,3.00,3.50,5.02,7.92,30.00,2.50,9.80,93.65,120.00,115.00,52.00,20.68,17.50,65.00,56.59,86.65,130.00,40.00,30.95,96.46,57.78,153.33,41.81,63.67,116.67,58.33,47.17
1,157.53,104.29,146.67,78.95,6.06,3.50,3.50,5.11,6.61,23.33,1.50,7.35,91.11,115.00,110.00,50.50,21.18,18.50,70.00,58.04,85.79,126.67,40.00,30.63,94.41,53.33,151.11,39.92,63.54,116.67,50.00,48.28
1,154.88,104.29,150.00,78.40,6.06,3.50,3.50,5.11,5.85,20.00,1.50,6.44,87.39,110.00,108.33,47.72,20.76,18.50,70.00,55.77,83.21,123.33,35.00,30.19,93.69,53.33,155.56,38.13,62.45,116.67,50.00,44.92
1,152.87,104.29,150.00,75.56,6.06,3.50,3.50,5.11,5.81,20.00,1.50,6.43,83.27,100.00,110.00,42.87,18.11,15.50,57.50,49.75,80.54,120.00,30.00,25.57,94.01,53.33,157.78,38.53,59.38,106.67,50.00,41.41
1,150.11,105.71,143.33,73.02,5.67,3.50,3.00,5.11,5.45,16.67,1.50,6.28,80.28,95.00,113.33,37.51,16.21,14.00,52.50,42.96,77.39,113.33,30.00,23.02,88.55,51.11,155.56,33.03,55.74,93.33,50.00,39.05
1,143.82,104.29,130.00,68.48,3.96,2.50,2.50,2.81,3.44,10.00,0.50,3.04,80.30,100.00,111.67,38.17,17.01,15.00,57.50,45.54,75.21,106.67,30.00,22.48,84.41,44.44,153.33,30.20,52.60,86.67,33.33,36.44
1,139.22,101.43,116.67,65.38,3.92,2.50,2.50,2.80,3.17,10.00,0.50,2.69,73.83,75.00,105.00,33.30,15.09,14.00,47.50,38.90,74.07,106.67,30.00,22.01,80.86,37.78,146.67,28.54,50.08,80.00,25.00,32.53
1,135.01,97.14,113.33,63.21,3.92,2.50,2.50,2.80,3.16,10.00,0.50,2.69,69.37,65.00,108.33,27.39,14.82,14.00,47.50,38.22,72.41,103.33,30.00,21.57,79.64,35.56,144.44,28.04,49.30,80.00,25.00,32.24
1,135.12,97.14,110.00,63.49,3.94,2.50,2.50,2.80,3.16,10.00,0.50,2.69,69.58,60.00,108.33,27.15,14.52,14.00,47.50,37.57,70.48,96.67,30.00,19.95,75.76,33.33,137.78,26.43,50.33,83.33,25.00,32.14
1,132.13,92.86,103.33,63.16,4.79,3.00,3.00,3.12,3.15,10.00,0.50,2.69,68.85,55.00,108.33,25.67,14.46,14.50,47.50,36.37,72.35,103.33,30.00,20.43,74.86,31.11,133.33,26.51,49.14,76.67,25.00,31.56
1,133.35,95.71,110.00,61.18,5.32,3.50,3.50,3.71,3.15,10.00,0.50,2.69,65.90,40.00,105.00,24.13,14.66,14.50,45.00,38.05,73.83,110.00,30.00,21.25,73.61,28.89,135.56,24.68,46.87,70.00,16.67,26.65
1,134.03,94.29,110.00,62.23,5.33,3.50,3.50,3.71,3.17,10.00,0.50,2.69,65.37,35.00,101.67,24.04,14.67,14.50,45.00,38.08,75.13,113.33,35.00,21.80,73.87,28.89,137.78,23.51,46.10,66.67,16.67,23.95
1,134.56,97.14,110.00,62.81,5.33,3.50,3.50,3.71,3.15,10.00,0.50,2.69,66.47,30.00,105.00,22.85,14.49,14.50,45.00,37.93,72.82,106.67,35.00,21.06,72.93,28.89,133.33,23.33,45.79,66.67,16.67,23.61
1,137.36,98.57,113.33,65.31,5.35,3.50,3.50,3.71,3.15,10.00,0.50,2.69,64.53,25.00,105.00,21.75,14.44,14.00,45.00,37.98,72.30,103.33,35.00,20.88,71.65,26.67,131.11,22.30,45.27,63.33,16.67,22.01
1,137.09,101.43,113.33,64.77,4.41,3.00,2.50,3.53,4.47,20.00,1.00,4.16,62.18,15.00,100.00,20.89,13.58,13.00,42.50,34.06,69.29,93.33,25.00,19.80,69.13,22.22,131.11,19.75,44.97,63.33,8.33,20.88
1,136.25,100.00,110.00,65.26,2.72,2.00,2.00,1.30,4.63,20.00,1.00,4.28,65.27,25.00,101.67,22.93,14.72,14.00,47.50,38.01,72.07,103.33,25.00,20.85,68.52,24.44,131.11,19.48,43.16,53.33,0.00,19.11
1,133.72,95.71,103.33,64.56,3.98,2.50,2.50,2.07,4.63,20.00,1.00,4.28,65.50,25.00,103.33,22.09,13.95,12.50,45.00,36.80,69.94,103.33,25.00,19.50,69.86,26.67,137.78,20.24,40.97,43.33,0.00,16.66
1,131.77,95.71,96.67,62.38,4.92,3.00,3.00,3.64,5.76,23.33,1.50,6.12,65.02,25.00,108.33,21.55,13.92,12.50,45.00,36.79,69.27,96.67,20.00,19.12,66.85,24.44,133.33,18.01,41.77,46.67,0.00,16.98
1,132.47,95.71,96.67,63.35,5.04,3.00,3.00,3.67,5.53,23.33,1.50,6.01,64.50,25.00,103.33,21.30,15.21,13.50,50.00,40.37,65.63,90.00,15.00,16.46,65.57,22.22,131.11,17.26,40.72,36.67,0.00,16.78
1,130.53,91.43,96.67,63.05,5.04,3.00,3.00,3.67,5.42,23.33,1.50,5.98,63.97,20.00,103.33,21.07,16.62,14.50,55.00,44.72,66.36,90.00,15.00,16.47,64.22,22.22,126.67,17.01,41.62,36.67,0.00,16.63
1,133.16,91.43,103.33,64.63,5.06,3.00,3.00,3.67,5.43,23.33,1.50,5.98,62.88,20.00,101.67,20.29,16.45,14.00,55.00,44.55,66.76,90.00,15.00,16.53,61.32,17.78,117.78,15.91,41.40,36.67,0.00,16.53
1,132.90,94.29,106.67,62.51,4.90,3.00,2.50,3.67,4.20,20.00,1.00,4.24,62.03,20.00,103.33,19.82,15.27,12.50,50.00,41.14,67.11,93.33,20.00,17.19,59.45,17.78,108.89,15.06,40.37,33.33,0.00,16.16
1,133.60,94.29,103.33,63.84,4.22,2.00,2.00,3.30,3.68,16.67,1.00,3.69,61.92,20.00,105.00,19.71,14.83,12.50,47.50,40.86,67.09,96.67,20.00,17.20,58.04,17.78,104.44,14.70,40.02,30.00,0.00,15.53
1,128.16,88.57,93.33,59.21,4.21,2.00,2.00,3.30,3.65,16.67,1.00,3.69,61.94,20.00,105.00,19.84,12.18,10.00,37.50,33.19,64.10,86.67,20.00,16.43,58.97,17.78,108.89,15.13,40.35,33.33,0.00,15.37
1,126.72,87.14,90.00,57.98,4.21,2.00,2.00,3.30,3.65,16.67,1.00,3.69,60.97,20.00,101.67,19.75,11.81,9.50,37.50,32.53,62.86,86.67,20.00,16.25,55.42,13.33,100.00,13.88,39.09,30.00,0.00,14.46
1,130.94,90.00,96.67,62.76,4.68,2.50,2.50,3.43,3.65,16.67,1.00,3.69,62.23,30.00,101.67,21.26,11.79,9.50,37.50,32.53,61.96,83.33,20.00,16.02,55.83,13.33,102.22,13.76,40.55,33.33,0.00,15.05
1,129.46,84.29,100.00,64.44,5.21,3.00,3.00,3.56,3.65,16.67,1.00,3.69,62.62,35.00,101.67,21.38,12.93,10.50,40.00,36.39,61.40,83.33,20.00,15.73,56.22,13.33,100.00,14.12,43.17,43.33,0.00,16.85
1,136.12,85.71,106.67,70.83,6.95,4.00,5.00,5.56,3.65,16.67,1.00,3.69,61.24,30.00,101.67,20.37,11.82,9.50,37.50,32.49,62.60,83.33,15.00,15.90,54.92,11.11,95.56,13.78,43.33,43.33,0.00,17.61
1,141.25,91.43,120.00,72.82,9.36,5.50,6.50,8.39,3.65,16.67,1.00,3.69,61.74,30.00,103.33,20.44,11.78,9.50,37.50,32.47,63.79,86.67,15.00,16.59,54.71,11.11,93.33,13.86,42.87,43.33,0.00,17.33
1,143.29,94.29,123.33,74.84,9.66,5.50,6.50,8.63,3.65,16.67,1.00,3.69,60.49,30.00,103.33,20.14,11.50,9.00,35.00,32.47,64.88,90.00,15.00,17.07,57.12,11.11,100.00,14.50,42.22,40.00,0.00,17.23
1,145.88,98.57,130.00,76.61,9.61,5.50,6.50,8.63,3.65,16.67,1.00,3.69,59.43,30.00,101.67,19.50,10.66,8.00,30.00,29.22,63.02,86.67,15.00,16.81,57.56,11.11,102.22,14.68,42.49,36.67,0.00,16.90
1,147.88,97.14,130.00,78.26,8.29,4.50,5.50,7.73,5.08,26.67,1.50,5.48,59.82,30.00,108.33,18.68,9.24,6.50,25.00,22.22,64.64,86.67,15.00,18.01,56.30,11.11,97.78,14.46,41.44,36.67,0.00,15.19
1,148.75,95.71,126.67,81.60,8.26,4.50,5.50,7.72,5.24,26.67,1.50,5.63,60.68,35.00,108.33,19.49,9.27,6.50,25.00,21.65,62.76,80.00,10.00,17.25,55.64,8.89,95.56,14.30,42.56,43.33,0.00,17.45
1,152.35,100.00,133.33,82.60,8.27,4.50,5.50,7.72,5.24,26.67,1.50,5.62,58.70,30.00,106.67,18.80,10.35,8.50,27.50,22.61,63.70,83.33,10.00,18.05,55.49,8.89,95.56,14.47,43.32,43.33,0.00,17.81
1,150.40,97.14,133.33,80.24,9.73,5.00,6.50,9.46,5.66,30.00,1.50,5.78,56.36,30.00,101.67,17.68,10.51,9.00,27.50,22.84,64.39,83.33,10.00,18.18,53.84,8.89,88.89,14.10,43.61,46.67,0.00,18.30
1,151.46,95.71,126.67,82.74,10.41,5.50,6.50,10.03,6.69,30.00,2.00,8.08,56.22,30.00,98.33,17.56,10.38,9.00,27.50,22.57,64.46,83.33,10.00,18.23,53.29,8.89,86.67,13.85,42.61,43.33,0.00,17.96
1,150.46,95.71,120.00,82.13,10.43,5.50,6.50,10.03,6.36,26.67,2.00,7.72,52.95,25.00,96.67,15.61,8.99,8.00,22.50,18.63,61.92,73.33,10.00,17.87,52.74,6.67,88.89,13.54,42.24,43.33,0.00,18.12
1,154.10,101.43,130.00,83.33,10.43,5.50,6.50,10.03,6.35,26.67,2.00,7.72,53.44,25.00,100.00,15.72,9.25,8.00,22.50,18.75,60.98,66.67,10.00,17.12,52.60,4.44,86.67,13.02,43.03,46.67,0.00,18.51
1,153.82,104.29,133.33,81.60,8.38,4.50,5.50,7.73,5.20,23.33,1.50,6.15,54.25,30.00,98.33,17.07,9.34,8.00,22.50,18.79,61.23,70.00,10.00,17.47,51.22,4.44,84.44,12.56,44.68,50.00,8.33,20.75
1,150.79,105.71,130.00,78.12,8.07,4.50,5.50,7.65,4.67,20.00,1.50,5.64,55.46,30.00,101.67,17.65,8.46,7.50,17.50,17.41,57.54,60.00,5.00,15.82,49.98,4.44,80.00,12.27,44.22,50.00,8.33,20.39
1,148.35,104.29,130.00,77.05,8.07,4.50,5.50,7.65,4.66,20.00,1.50,5.64,54.29,30.00,100.00,17.24,6.97,6.50,12.50,11.64,58.89,63.33,5.00,15.96,50.19,4.44,80.00,12.28,43.49,50.00,8.33,20.05
1,147.87,104.29,126.67,77.68,8.06,4.50,5.50,7.65,4.66,20.00,1.50,5.64,54.34,30.00,101.67,17.19,6.48,6.00,12.50,10.55,58.54,63.33,5.00,15.77,51.56,4.44,84.44,12.29,43.24,50.00,8.33,19.85
1,147.52,104.29,130.00,76.08,8.06,4.50,5.50,7.65,4.66,20.00,1.50,5.64,54.73,30.00,101.67,17.44,6.16,6.00,12.50,10.36,58.86,60.00,0.00,15.69,52.64,6.67,88.89,13.40,43.68,56.67,8.33,20.27
1,146.62,104.29,130.00,75.88,8.28,5.00,5.50,7.67,4.65,20.00,1.50,5.64,57.46,35.00,101.67,18.92,6.15,6.00,12.50,10.36,59.48,63.33,0.00,15.86,53.75,8.89,88.89,13.69,43.04,53.33,8.33,20.29
1,147.67,105.71,130.00,76.18,9.57,5.50,6.50,8.84,4.64,20.00,1.50,5.64,56.11,35.00,98.33,18.53,6.15,6.00,12.50,10.36,60.38,66.67,0.00,16.32,51.43,6.67,82.22,12.69,40.71,46.67,8.33,19.05
1,152.18,110.00,136.67,80.01,10.11,6.00,6.50,9.22,4.64,20.00,1.50,5.64,56.45,35.00,101.67,18.46,6.15,6.00,12.50,10.36,63.28,76.67,5.00,17.56,52.68,8.89,84.44,13.07,41.98,50.00,8.33,20.17
1,153.38,111.43,140.00,79.35,9.69,5.50,6.00,9.10,4.64,20.00,1.50,5.64,52.48,25.00,95.00,16.09,6.15,6.00,12.50,10.36,65.81,83.33,5.00,18.17,52.96,8.89,86.67,13.06,40.71,46.67,8.33,19.53
1,150.20,108.57,133.33,75.33,9.64,5.50,6.00,9.09,4.63,20.00,1.50,5.64,53.87,20.00,98.33,16.79,5.86,5.50,12.50,9.76,66.19,86.67,5.00,18.61,53.18,8.89,86.67,12.93,39.40,40.00,8.33,19.01
1,146.71,108.57,126.67,73.04,8.46,4.50,4.00,8.73,6.57,26.67,2.50,8.86,52.95,20.00,98.33,15.70,6.16,6.00,12.50,10.45,66.25,83.33,5.00,18.33,53.27,8.89,88.89,13.07,37.51,36.67,8.33,16.29
1,144.35,102.86,120.00,73.06,5.59,3.00,2.00,5.61,7.11,30.00,2.50,9.35,53.65,20.00,96.67,15.86,6.16,6.00,12.50,10.45,64.27,76.67,5.00,17.66,52.82,8.89,86.67,13.15,38.09,36.67,8.33,16.60
1,144.39,105.71,120.00,72.91,4.72,2.50,2.00,3.89,7.39,30.00,2.50,9.43,53.53,20.00,95.00,16.07,7.56,7.00,17.50,14.39,62.59,76.67,5.00,16.92,50.49,8.89,80.00,12.17,37.47,36.67,8.33,16.50
1,144.14,102.86,116.67,72.98,4.68,2.50,2.00,3.89,7.40,30.00,2.50,9.43,52.53,20.00,93.33,15.45,7.14,6.50,17.50,13.88,66.18,86.67,5.00,18.30,51.69,13.33,82.22,12.81,37.20,43.33,8.33,16.54
1,139.56,101.43,110.00,68.40,5.71,3.50,3.00,4.51,7.86,30.00,2.50,10.02,53.64,20.00,96.67,15.78,8.29,7.50,22.50,17.66,65.11,76.67,10.00,17.53,51.91,13.33,80.00,12.50,36.61,43.33,8.33,16.50
1,136.39,101.43,103.33,65.35,5.86,3.50,3.00,4.59,7.47,26.67,2.50,9.57,51.03,15.00,96.67,14.47,8.98,8.50,27.50,20.84,65.18,76.67,10.00,17.18,53.04,11.11,88.89,12.45,35.02,33.33,8.33,14.10
1,134.19,97.14,100.00,65.77,5.85,3.50,3.00,4.59,7.46,26.67,2.50,9.57,51.75,15.00,101.67,14.68,8.23,7.00,25.00,20.34,64.92,73.33,10.00,16.58,53.58,13.33,91.11,12.42,33.44,33.33,8.33,13.28
1,129.05,95.71,96.67,61.56,5.45,3.50,2.50,4.59,7.13,23.33,2.50,9.44,55.27,20.00,106.67,17.21,7.03,5.50,20.00,16.65,66.04,80.00,15.00,16.91,55.71,13.33,100.00,13.17,33.08,30.00,8.33,12.92
1,132.03,98.57,106.67,64.07,3.72,2.50,2.00,2.29,5.14,16.67,1.50,6.23,59.10,25.00,113.33,20.38,8.23,6.50,25.00,20.25,63.49,76.67,15.00,16.15,55.64,13.33,102.22,13.32,32.80,30.00,8.33,12.89
1,133.69,98.57,113.33,65.91,3.66,2.50,2.00,2.28,4.88,16.67,1.50,5.88,61.59,25.00,110.00,24.94,9.94,8.50,32.50,24.01,63.35,76.67,15.00,15.66,55.43,13.33,95.56,13.43,33.39,33.33,8.33,13.04
1,132.91,97.14,110.00,65.01,3.66,2.50,2.00,2.28,4.88,16.67,1.50,5.88,62.52,30.00,105.00,27.96,11.67,10.00,37.50,30.69,65.24,83.33,15.00,15.99,56.00,15.56,97.78,13.83,33.03,33.33,8.33,13.08
1,133.69,94.29,113.33,67.20,3.67,2.50,2.00,2.28,4.90,16.67,1.50,5.88,65.08,30.00,106.67,30.37,12.51,11.00,40.00,32.35,67.09,93.33,15.00,16.97,55.44,15.56,95.56,13.83,30.10,26.67,0.00,11.22
1,135.67,95.71,113.33,67.72,3.99,3.00,2.50,2.33,4.89,16.67,1.50,5.88,65.88,30.00,106.67,29.57,13.10,11.50,42.50,34.90,67.74,93.33,15.00,17.22,55.78,17.78,95.56,13.71,31.46,33.33,8.33,11.64
1,132.87,94.29,106.67,65.74,5.63,3.50,3.50,4.18,4.89,16.67,1.50,5.88,67.84,35.00,111.67,30.93,13.12,11.50,42.50,34.90,69.33,103.33,20.00,18.01,56.87,17.78,100.00,14.27,31.52,33.33,8.33,12.00
1,136.81,97.14,116.67,68.62,6.30,4.00,3.50,4.76,4.90,16.67,1.50,5.88,69.78,40.00,111.67,31.37,14.01,12.50,45.00,36.27,71.45,110.00,20.00,19.09,59.04,20.00,102.22,15.24,31.50,33.33,8.33,12.23
1,135.15,97.14,110.00,68.13,6.32,4.00,3.50,4.76,4.91,16.67,1.50,5.88,72.95,45.00,115.00,33.31,16.34,15.00,57.50,42.81,70.98,113.33,20.00,19.01,57.43,20.00,100.00,14.55,33.17,40.00,8.33,13.75
1,136.30,98.57,113.33,68.53,6.32,4.00,3.50,4.77,4.92,16.67,1.50,5.88,69.86,40.00,111.67,31.75,16.51,15.00,57.50,43.25,71.65,113.33,20.00,19.24,58.01,20.00,102.22,14.61,31.84,33.33,8.33,12.08
1,136.08,98.57,116.67,68.50,5.65,3.50,3.00,4.70,4.91,16.67,1.50,5.88,70.78,45.00,111.67,31.74,17.89,16.00,62.50,47.19,72.33,110.00,25.00,20.18,56.99,17.78,100.00,14.15,32.57,33.33,8.33,12.50
1,136.48,97.14,116.67,67.71,4.28,2.50,2.50,3.20,5.77,26.67,1.50,6.49,72.40,50.00,115.00,33.08,17.99,16.00,62.50,47.24,73.81,113.33,25.00,20.47,57.27,17.78,102.22,14.36,31.05,30.00,8.33,11.67
1,135.38,95.71,116.67,68.16,4.25,2.50,2.50,3.19,5.97,26.67,1.50,6.55,72.61,50.00,116.67,32.73,18.00,16.00,62.50,47.24,71.01,103.33,20.00,19.27,57.06,15.56,102.22,13.88,32.24,33.33,8.33,12.35
1,138.20,98.57,120.00,69.77,4.27,2.50,2.50,3.19,5.98,26.67,1.50,6.55,76.37,65.00,116.67,36.73,19.03,17.00,65.00,50.91,72.56,106.67,20.00,20.11,58.21,15.56,104.44,14.23,33.44,36.67,8.33,12.79
1,137.12,100.00,116.67,68.17,5.79,3.50,3.50,4.55,5.24,26.67,0.50,4.42,75.58,65.00,116.67,36.41,18.02,16.00,62.50,47.23,70.73,103.33,20.00,19.16,57.88,15.56,106.67,14.25,35.37,40.00,16.67,14.55
1,133.04,97.14,113.33,64.98,6.03,3.50,3.50,4.72,6.67,26.67,1.50,6.91,74.13,65.00,111.67,36.08,18.00,16.00,62.50,47.22,70.98,103.33,20.00,19.15,58.53,15.56,111.11,14.35,35.98,40.00,16.67,14.85
1,132.88,97.14,116.67,65.61,6.02,3.50,3.50,4.72,8.15,33.33,2.50,10.55,73.56,65.00,108.33,36.05,16.71,15.00,57.50,43.65,71.19,100.00,20.00,19.05,61.92,15.56,120.00,15.12,37.49,46.67,16.67,15.79
1,134.29,100.00,116.67,64.27,6.02,3.50,3.50,4.72,8.17,33.33,2.50,10.55,76.05,65.00,113.33,37.00,16.51,15.00,57.50,43.24,70.89,100.00,20.00,19.78,61.39,13.33,120.00,15.51,38.11,43.33,16.67,16.78
1,135.41,101.43,120.00,65.17,5.32,3.00,2.50,4.48,6.70,26.67,2.00,8.68,76.08,65.00,111.67,37.52,15.19,14.00,52.50,39.53,67.85,96.67,15.00,18.48,59.53,11.11,117.78,14.45,38.86,50.00,16.67,17.03
1,134.61,98.57,123.33,65.25,4.85,2.50,2.50,4.02,6.49,26.67,2.00,8.47,75.34,65.00,106.67,37.39,14.30,13.00,47.50,36.33,70.05,106.67,15.00,18.87,59.21,11.11,113.33,14.42,40.07,53.33,16.67,17.94
1,133.08,98.57,116.67,63.77,4.85,2.50,2.50,4.02,6.48,26.67,2.00,8.47,77.53,70.00,106.67,38.31,15.00,13.50,52.50,39.35,71.88,116.67,15.00,19.41,59.05,11.11,111.11,14.61,40.53,53.33,16.67,18.00
1,135.73,100.00,123.33,63.82,4.85,2.50,2.50,4.02,6.49,26.67,2.00,8.47,76.37,65.00,106.67,36.99,15.01,13.00,52.50,39.37,73.42,120.00,15.00,20.62,58.62,8.89,108.89,14.16,42.51,60.00,16.67,19.68
1,136.06,101.43,120.00,63.36,4.85,2.50,2.50,4.02,6.49,26.67,2.00,8.47,71.52,60.00,98.33,34.34,15.15,14.00,52.50,39.65,74.42,120.00,15.00,20.77,57.98,8.89,102.22,14.11,44.26,66.67,16.67,20.73
1,134.97,102.86,120.00,61.00,4.97,2.50,2.50,4.03,6.49,26.67,2.00,8.47,69.94,60.00,100.00,31.51,13.63,12.00,45.00,35.92,73.84,120.00,15.00,20.62,59.71,13.33,106.67,15.22,45.24,70.00,16.67,21.50
1,136.74,104.29,120.00,61.72,6.89,3.50,3.50,6.12,6.51,26.67,2.00,8.47,69.60,55.00,106.67,28.12,12.86,11.50,45.00,32.48,75.71,126.67,15.00,21.35,62.57,17.78,106.67,16.48,45.67,66.67,16.67,22.04
1,134.59,100.00,116.67,60.80,7.18,3.50,3.50,6.36,6.50,26.67,2.00,8.47,67.12,50.00,108.33,24.41,12.65,11.50,45.00,32.25,73.40,113.33,15.00,20.42,62.59,15.56,113.33,16.88,46.33,66.67,16.67,22.13
1,132.14,95.71,116.67,59.67,7.17,3.50,3.50,6.36,6.50,26.67,2.00,8.47,67.85,60.00,108.33,25.51,11.20,10.00,40.00,28.33,73.40,116.67,15.00,20.83,65.90,17.78,120.00,18.58,47.25,70.00,16.67,22.62
1,137.64,97.14,123.33,64.77,6.28,3.00,2.50,6.22,6.50,26.67,2.00,8.47,64.66,55.00,100.00,23.85,11.14,10.00,40.00,28.30,70.98,110.00,10.00,19.71,62.95,15.56,113.33,17.48,45.86,63.33,8.33,21.09
1,135.57,94.29,116.67,63.90,4.57,2.00,2.00,3.88,8.54,36.67,3.00,11.91,64.77,50.00,105.00,23.62,12.77,12.00,47.50,31.48,72.40,116.67,15.00,20.49,64.17,13.33,113.33,17.94,46.74,66.67,8.33,21.25
1,134.36,95.71,116.67,62.51,4.54,2.00,2.00,3.88,9.17,40.00,3.00,12.38,62.48,45.00,101.67,22.46,10.44,9.50,35.00,26.04,69.75,106.67,15.00,19.58,62.56,11.11,115.56,16.81,46.52,66.67,8.33,21.19
1,137.84,97.14,123.33,64.47,4.55,2.00,2.00,3.88,9.19,40.00,3.00,12.38,62.00,45.00,101.67,22.36,11.27,10.00,40.00,28.27,70.42,106.67,15.00,19.48,62.72,11.11,113.33,16.83,46.40,63.33,8.33,20.73
1,136.08,95.71,120.00,63.00,4.59,2.00,2.00,3.88,10.16,46.67,3.00,13.17,63.18,45.00,105.00,22.64,10.13,9.00,35.00,24.96,68.03,103.33,10.00,17.65,62.27,11.11,108.89,16.61,45.84,63.33,8.33,20.54
1,135.72,95.71,116.67,64.15,4.59,2.00,2.00,3.88,11.75,43.33,4.00,16.20,61.01,35.00,101.67,21.34,9.94,9.00,35.00,24.56,68.30,103.33,10.00,17.97,61.92,11.11,104.44,16.96,47.21,63.33,8.33,21.44
1,135.32,94.29,113.33,65.12,4.58,2.00,2.00,3.88,13.28,50.00,5.00,19.83,59.33,35.00,98.33,20.91,11.38,10.00,40.00,28.51,67.46,100.00,10.00,17.43,61.59,11.11,106.67,16.86,47.35,60.00,8.33,21.04
1,136.56,92.86,116.67,65.42,4.56,2.00,2.00,3.88,13.29,50.00,5.00,19.84,57.62,25.00,98.33,19.41,10.41,9.00,35.00,25.54,67.37,100.00,10.00,17.20,61.72,13.33,104.44,16.85,47.78,60.00,8.33,20.95
1,136.64,95.71,116.67,64.67,3.52,1.50,1.00,3.36,12.59,46.67,5.00,19.39,57.30,25.00,98.33,18.18,9.95,8.50,35.00,24.58,65.41,93.33,10.00,16.68,60.43,13.33,100.00,16.24,46.42,60.00,0.00,19.44
1,135.33,92.86,113.33,63.29,2.82,1.00,1.00,2.35,10.61,40.00,4.00,16.03,57.53,25.00,100.00,17.84,9.94,8.50,35.00,24.57,65.73,93.33,10.00,17.23,59.99,13.33,93.33,16.35,45.67,60.00,0.00,18.83
1,139.39,94.29,120.00,67.02,2.78,1.00,1.00,2.35,8.49,33.33,3.00,12.10,60.01,25.00,106.67,18.49,12.12,10.50,42.50,30.34,66.19,100.00,10.00,17.74,60.11,13.33,93.33,16.76,44.70,56.67,0.00,18.79
1,139.94,97.14,123.33,65.91,2.79,1.00,1.00,2.35,8.35,33.33,3.00,12.05,56.66,25.00,101.67,17.11,13.55,12.00,47.50,34.31,66.58,96.67,10.00,17.63,60.29,13.33,91.11,16.87,44.96,56.67,0.00,18.32
1,141.72,97.14,126.67,66.70,2.79,1.00,1.00,2.35,8.35,33.33,3.00,12.05,54.98,25.00,95.00,16.74,14.16,12.50,50.00,37.18,66.27,96.67,10.00,17.21,61.24,13.33,95.56,17.22,44.45,50.00,0.00,17.76
1,143.06,97.14,130.00,68.12,4.04,1.50,2.00,3.57,8.34,33.33,3.00,12.05,55.36,25.00,98.33,16.35,15.49,13.50,55.00,40.87,68.18,100.00,15.00,17.87,60.00,13.33,88.89,16.96,42.67,43.33,0.00,16.43
1,146.60,100.00,130.00,70.34,4.59,2.00,2.00,3.97,8.34,33.33,3.00,12.05,55.66,25.00,100.00,16.62,14.27,12.50,50.00,37.23,66.00,90.00,15.00,18.00,58.91,13.33,86.67,16.82,43.34,43.33,0.00,17.14
1,144.60,97.14,120.00,71.33,4.61,2.00,2.00,3.98,8.35,33.33,3.00,12.05,56.33,25.00,96.67,17.54,13.91,12.50,50.00,37.02,63.54,83.33,10.00,17.09,57.81,13.33,82.22,16.75,42.01,40.00,0.00,16.06
1,145.95,95.71,123.33,72.17,4.61,2.00,2.00,3.98,8.34,33.33,3.00,12.05,55.35,25.00,96.67,17.28,13.74,12.50,47.50,35.65,61.36,80.00,10.00,16.27,57.80,13.33,84.44,16.42,40.67,40.00,0.00,16.02
1,144.46,98.57,116.67,70.53,4.57,2.00,2.00,3.98,8.34,33.33,3.00,12.05,54.37,20.00,98.33,16.30,13.73,12.50,47.50,35.15,62.52,83.33,10.00,16.39,57.37,8.89,84.44,16.49,40.33,36.67,0.00,15.92
1,141.42,97.14,113.33,68.39,3.15,1.50,1.00,3.16,10.36,43.33,4.00,15.48,54.74,20.00,93.33,16.36,14.15,13.00,47.50,36.16,63.63,83.33,10.00,16.34,56.96,6.67,84.44,16.76,40.42,40.00,0.00,16.43
1,143.28,98.57,113.33,70.04,2.33,1.00,1.00,1.64,11.67,50.00,4.00,17.18,56.40,25.00,96.67,17.56,13.74,12.50,47.50,35.21,62.08,80.00,10.00,15.75,54.48,4.44,80.00,14.65,38.97,36.67,0.00,15.15
1,145.06,101.43,113.33,70.83,2.28,1.00,1.00,1.63,11.98,50.00,4.00,17.30,53.40,15.00,91.67,16.08,14.32,13.00,50.00,36.57,59.46,73.33,10.00,14.70,51.10,2.22,73.33,12.81,39.28,33.33,0.00,15.24
1,143.22,101.43,110.00,70.82,2.28,1.00,1.00,1.63,11.98,50.00,4.00,17.30,57.71,20.00,100.00,18.03,16.49,14.00,55.00,43.08,59.30,73.33,10.00,14.56,51.75,2.22,75.56,13.04,38.96,36.67,0.00,15.41
1,145.15,104.29,113.33,69.89,3.02,2.00,2.00,1.96,12.47,46.67,4.00,17.67,58.59,20.00,95.00,19.93,17.40,14.50,55.00,49.22,60.13,66.67,10.00,14.70,52.45,2.22,80.00,13.17,40.91,43.33,0.00,16.02
1,142.29,98.57,110.00,69.40,3.10,2.00,2.00,1.98,13.51,50.00,5.00,20.63,60.25,25.00,98.33,21.27,17.54,14.50,55.00,49.62,58.85,60.00,5.00,13.94,50.81,2.22,73.33,12.75,39.45,36.67,0.00,15.08
1,139.20,97.14,100.00,67.63,3.09,2.00,2.00,1.98,13.48,50.00,5.00,20.60,64.47,35.00,101.67,23.50,17.93,15.50,55.00,50.53,57.79,56.67,5.00,13.75,51.73,2.22,75.56,13.38,40.45,40.00,0.00,15.72
1,140.01,98.57,100.00,69.96,3.07,2.00,2.00,1.98,12.58,43.33,5.00,19.88,66.94,35.00,101.67,25.53,17.70,15.00,55.00,50.01,57.24,56.67,5.00,13.55,51.62,2.22,75.56,13.42,40.18,36.67,0.00,15.41
1,139.08,98.57,96.67,69.75,3.04,2.00,2.00,1.98,10.59,36.67,4.00,16.47,68.84,40.00,101.67,27.80,19.02,16.00,60.00,53.61,58.77,60.00,5.00,14.11,50.92,2.22,75.56,13.02,40.25,43.33,0.00,15.76
1,138.85,100.00,96.67,68.07,3.05,2.00,2.00,1.98,8.45,30.00,3.00,12.52,71.56,45.00,103.33,30.10,18.24,15.50,55.00,50.53,59.00,60.00,5.00,14.39,51.07,2.22,71.11,13.01,39.20,43.33,0.00,15.30
1,137.61,98.57,90.00,69.34,3.06,2.00,2.00,1.98,8.32,30.00,3.00,12.47,71.73,40.00,103.33,29.96,19.17,16.50,57.50,51.91,57.08,53.33,5.00,13.62,51.35,2.22,66.67,13.13,38.23,43.33,0.00,15.18
1,140.45,100.00,96.67,70.90,3.07,2.00,2.00,1.98,8.32,30.00,3.00,12.47,74.34,50.00,108.33,32.31,19.75,17.00,60.00,54.56,56.57,53.33,5.00,13.57,51.79,4.44,66.67,14.18,38.64,43.33,0.00,15.26
1,143.37,102.86,100.00,74.12,3.69,2.50,3.00,2.29,8.31,30.00,3.00,12.47,77.45,50.00,111.67,33.56,21.34,18.00,65.00,58.16,56.05,53.33,5.00,13.36,51.36,4.44,68.89,14.09,39.28,43.33,0.00,16.92
1,137.69,97.14,86.67,70.33,5.79,4.00,4.50,4.52,8.31,30.00,3.00,12.47,80.28,60.00,110.00,35.91,21.38,18.00,65.00,58.65,55.25,50.00,5.00,13.11,52.05,8.89,71.11,14.30,39.65,46.67,0.00,17.18
1,136.79,94.29,83.33,71.67,6.08,4.00,4.50,4.76,8.30,30.00,3.00,12.47,80.72,65.00,108.33,37.04,20.01,17.00,60.00,53.83,54.33,46.67,5.00,12.43,53.31,8.89,77.78,14.34,38.32,43.33,0.00,16.45
1,136.07,92.86,80.00,73.86,6.08,4.00,4.50,4.77,8.31,30.00,3.00,12.47,80.20,65.00,110.00,36.88,18.84,15.50,55.00,49.77,54.53,46.67,5.00,12.61,53.08,8.89,77.78,14.09,37.82,43.33,0.00,16.29
1,138.56,94.29,80.00,76.41,5.71,4.00,4.00,4.77,8.30,30.00,3.00,12.47,78.71,65.00,105.00,36.54,20.10,17.00,60.00,54.94,52.75,40.00,0.00,12.32,54.73,8.89,84.44,14.53,38.99,43.33,0.00,16.87
1,138.11,91.43,80.00,76.15,4.30,3.00,3.50,3.15,8.31,30.00,3.00,12.47,76.69,65.00,96.67,35.95,20.19,17.00,60.00,55.01,51.68,36.67,0.00,11.08,54.30,8.89,82.22,14.21,37.88,43.33,0.00,16.39
1,135.27,91.43,80.00,71.89,4.27,3.00,3.50,3.14,8.73,30.00,3.00,12.47,77.45,65.00,98.33,35.57,20.21,17.00,60.00,55.02,50.89,33.33,0.00,10.66,53.76,8.89,82.22,13.90,37.69,46.67,0.00,16.24
1,139.97,97.14,90.00,74.47,4.28,3.00,3.50,3.14,10.63,40.00,4.00,15.99,78.36,65.00,101.67,35.71,21.01,17.00,62.50,57.53,52.76,33.33,0.00,11.66,53.98,8.89,82.22,14.01,37.16,43.33,0.00,15.56
1,133.94,90.00,80.00,71.72,4.27,3.00,3.50,3.14,10.88,40.00,4.00,16.23,79.63,65.00,101.67,36.18,21.76,17.50,67.50,61.20,51.93,30.00,0.00,11.52,53.22,8.89,84.44,13.06,36.56,43.33,0.00,14.81
1,135.17,91.43,83.33,73.18,4.29,3.00,3.50,3.14,9.35,30.00,3.00,13.17,81.33,70.00,106.67,36.38,21.71,17.50,67.50,60.62,54.23,43.33,0.00,12.46,52.36,8.89,82.22,12.65,38.12,46.67,8.33,15.80
1,131.48,90.00,76.67,70.36,4.66,3.50,3.50,3.22,9.84,33.33,3.50,12.97,80.26,65.00,101.67,36.01,22.85,19.00,72.50,63.88,52.59,36.67,0.00,12.19,52.44,8.89,86.67,12.44,39.41,50.00,8.33,17.00
1,131.38,90.00,80.00,69.39,4.68,3.50,3.50,3.22,10.33,36.67,4.00,15.12,83.11,75.00,105.00,37.76,24.26,20.00,77.50,68.21,56.37,43.33,10.00,14.67,55.74,13.33,88.89,14.68,43.50,60.00,25.00,22.00
1,133.72,91.43,83.33,71.26,4.69,3.50,3.50,3.22,10.35,36.67,4.00,15.12,84.10,85.00,105.00,38.44,22.49,19.00,72.50,61.75,57.05,43.33,10.00,14.74,55.78,13.33,86.67,14.74,42.33,56.67,25.00,21.27
1,135.02,92.86,86.67,71.02,4.11,3.00,2.50,2.95,8.41,30.00,3.00,11.88,82.31,90.00,103.33,36.43,20.17,17.50,65.00,53.79,59.60,50.00,15.00,16.14,55.96,13.33,88.89,14.76,43.33,63.33,33.33,22.22
1,138.88,97.14,86.67,75.84,3.86,2.50,2.50,2.87,6.28,23.33,2.00,7.96,80.07,85.00,101.67,35.70,20.07,18.00,65.00,52.97,60.93,53.33,15.00,16.09,56.10,13.33,86.67,14.79,42.98,60.00,33.33,22.14
1,136.88,94.29,83.33,73.24,3.86,2.50,2.50,2.87,6.14,23.33,2.00,7.91,77.35,75.00,98.33,33.99,19.11,17.00,62.50,50.63,61.53,53.33,15.00,16.48,55.62,13.33,86.67,14.67,43.19,60.00,33.33,22.42
1,133.62,90.00,80.00,70.49,3.86,2.50,2.50,2.87,6.14,23.33,2.00,7.91,77.88,85.00,100.00,34.51,20.51,19.00,72.50,51.94,62.57,53.33,15.00,16.64,56.12,13.33,91.11,14.76,42.48,56.67,33.33,22.37
1,136.46,91.43,86.67,71.47,3.86,2.50,2.50,2.87,6.13,23.33,2.00,7.91,77.60,85.00,98.33,33.30,20.97,20.00,72.50,54.45,61.52,56.67,15.00,16.41,56.68,13.33,95.56,14.78,42.08,50.00,33.33,21.59
1,137.00,92.86,93.33,70.47,4.27,3.00,3.00,2.98,6.13,23.33,2.00,7.91,77.84,80.00,101.67,32.12,21.47,20.50,75.00,53.67,61.64,53.33,15.00,15.86,54.92,13.33,91.11,14.41,41.89,50.00,33.33,21.49
1,139.79,95.71,96.67,71.18,6.22,4.00,4.00,5.17,6.13,23.33,2.00,7.91,76.18,80.00,95.00,31.87,21.47,20.50,77.50,55.59,63.15,56.67,15.00,16.33,55.23,13.33,95.56,13.96,42.96,50.00,33.33,21.76
1,140.06,94.29,96.67,71.88,6.44,4.00,4.00,5.34,6.13,23.33,2.00,7.91,76.12,80.00,96.67,32.16,21.47,20.50,77.50,55.49,62.98,56.67,15.00,16.21,54.13,8.89,100.00,12.91,43.60,53.33,33.33,22.02
1,135.57,91.43,93.33,68.33,6.28,4.00,3.50,5.34,6.13,23.33,2.00,7.91,75.15,80.00,95.00,31.80,20.59,20.00,72.50,54.09,62.86,53.33,15.00,15.87,54.38,8.89,97.78,13.03,43.14,46.67,33.33,20.90
1,141.68,97.14,106.67,70.38,4.33,2.50,1.50,4.15,6.13,23.33,2.00,7.91,71.72,70.00,93.33,30.00,18.65,18.00,67.50,47.80,62.66,53.33,15.00,15.90,52.17,6.67,91.11,12.69,44.04,50.00,33.33,21.79
1,140.28,97.14,103.33,69.16,3.48,2.00,1.50,2.56,6.13,23.33,2.00,7.91,73.95,70.00,96.67,31.81,19.81,19.50,72.50,51.37,65.26,63.33,15.00,16.86,50.31,4.44,91.11,11.70,44.67,50.00,33.33,21.22
1,140.29,97.14,103.33,68.30,3.45,2.00,1.50,2.56,6.75,26.67,2.00,8.15,72.33,65.00,95.00,30.37,19.98,19.50,72.50,51.65,64.20,63.33,15.00,16.55,49.48,4.44,88.89,11.32,47.02,56.67,41.67,23.15
1,140.17,94.29,106.67,68.75,3.45,2.00,1.50,2.56,7.14,30.00,2.00,8.65,76.82,70.00,100.00,33.35,18.78,19.00,65.00,47.49,63.59,63.33,15.00,16.10,48.44,4.44,84.44,10.99,46.78,63.33,41.67,23.96
1,141.32,95.71,113.33,70.23,3.45,2.00,1.50,2.56,7.16,30.00,2.00,8.65,78.82,75.00,101.67,34.33,18.11,18.00,65.00,44.73,63.01,63.33,15.00,15.87,47.72,4.44,84.44,10.90,48.63,70.00,41.67,24.89
1,144.31,98.57,116.67,71.41,5.46,3.00,2.50,4.83,8.29,36.67,2.50,9.58,81.02,85.00,106.67,35.73,18.84,18.50,67.50,45.57,62.47,63.33,15.00,15.76,47.98,4.44,84.44,10.81,47.55,66.67,41.67,24.50
1,140.11,95.71,110.00,69.83,5.61,3.00,2.50,4.86,6.96,33.33,2.00,7.85,78.95,80.00,108.33,34.77,18.16,18.00,65.00,44.87,61.83,63.33,15.00,15.42,47.88,4.44,84.44,10.63,47.23,63.33,41.67,24.51
1,141.78,95.71,113.33,70.80,5.60,3.00,2.50,4.86,6.47,30.00,2.00,7.53,77.79,80.00,103.33,34.77,18.12,18.50,65.00,44.31,61.48,63.33,15.00,14.56,46.53,4.44,80.00,10.25,47.81,66.67,41.67,25.18
1,144.74,98.57,116.67,72.96,5.59,3.00,2.50,4.86,6.28,30.00,2.00,7.50,76.41,75.00,103.33,33.78,16.95,17.00,60.00,41.39,59.64,53.33,15.00,14.57,47.52,4.44,86.67,10.43,47.21,70.00,33.33,25.36
1,142.69,94.29,116.67,73.26,5.24,2.50,2.50,4.79,5.50,23.33,2.00,6.98,76.88,80.00,105.00,34.79,15.91,16.00,55.00,39.74,60.37,53.33,15.00,14.56,47.44,4.44,84.44,10.34,46.80,66.67,33.33,23.87
1,143.50,91.43,113.33,74.58,5.21,2.50,2.50,4.78,3.39,16.67,1.00,3.41,75.76,75.00,105.00,32.99,16.43,17.00,60.00,38.39,56.18,50.00,5.00,11.75,44.57,0.00,84.44,8.29,41.89,56.67,16.67,18.63
1,147.34,97.14,126.67,75.42,5.19,2.50,2.50,4.78,3.34,16.67,1.00,3.40,75.02,70.00,105.00,34.01,17.11,17.00,62.50,39.23,57.32,53.33,5.00,12.14,45.25,0.00,84.44,8.77,42.59,56.67,16.67,18.84
1,147.93,97.14,123.33,75.81,5.19,2.50,2.50,4.78,3.35,16.67,1.00,3.40,75.03,65.00,106.67,34.20,17.94,18.00,65.00,41.76,53.87,46.67,0.00,10.97,45.36,2.22,82.22,9.28,43.44,60.00,16.67,19.53
1,146.16,97.14,126.67,73.27,5.39,2.50,2.50,4.81,3.35,16.67,1.00,3.40,72.73,60.00,106.67,32.97,19.26,19.00,72.50,45.77,54.53,50.00,0.00,11.45,47.67,4.44,86.67,10.05,42.91,56.67,8.33,18.73
1,148.36,101.43,130.00,73.61,6.72,3.50,3.50,5.81,3.35,16.67,1.00,3.40,73.09,60.00,106.67,32.97,18.66,18.00,67.50,44.19,52.36,46.67,0.00,10.73,48.25,4.44,88.89,10.10,42.15,56.67,8.33,18.18
1,149.06,104.29,130.00,74.22,8.81,4.50,5.00,8.27,3.35,16.67,1.00,3.40,71.81,55.00,105.00,32.39,17.02,16.00,57.50,40.98,51.46,46.67,0.00,10.62,49.52,4.44,93.33,10.30,43.22,60.00,8.33,18.83
1,150.25,102.86,130.00,77.22,8.94,4.50,5.00,8.30,3.36,16.67,1.00,3.40,71.21,50.00,106.67,30.86,17.07,16.00,57.50,42.34,51.31,40.00,0.00,10.36,49.50,4.44,88.89,10.62,43.51,63.33,8.33,18.88
1,145.60,98.57,123.33,74.98,8.65,4.00,4.50,8.26,3.36,16.67,1.00,3.40,72.48,60.00,105.00,32.30,17.81,17.00,62.50,43.19,51.84,46.67,0.00,10.85,50.98,4.44,97.78,10.82,43.42,63.33,8.33,19.01
1,148.83,101.43,130.00,77.12,7.02,3.50,3.50,6.42,3.36,16.67,1.00,3.40,74.01,60.00,110.00,32.47,18.33,17.00,65.00,45.46,49.64,43.33,0.00,10.52,51.13,4.44,97.78,11.22,43.34,63.33,8.33,18.98
1,145.26,98.57,123.33,75.91,6.35,3.00,3.50,5.84,4.66,23.33,1.50,4.58,71.25,55.00,106.67,29.78,18.97,17.50,65.00,46.60,50.04,50.00,0.00,10.58,50.73,4.44,91.11,11.47,42.12,60.00,8.33,18.76
1,146.99,100.00,123.33,76.59,6.33,3.00,3.50,5.83,5.51,26.67,2.00,6.87,71.61,55.00,106.67,30.44,20.04,18.50,70.00,50.81,51.26,53.33,0.00,11.01,48.99,4.44,86.67,10.99,42.22,60.00,8.33,18.76
1,140.25,94.29,110.00,73.55,6.32,3.00,3.50,5.83,5.54,26.67,2.00,6.87,72.57,60.00,105.00,32.06,21.37,20.00,75.00,54.48,48.96,50.00,0.00,10.26,48.64,4.44,84.44,10.81,40.62,53.33,8.33,17.59
1,138.43,91.43,106.67,71.86,6.33,3.00,3.50,5.83,5.89,30.00,2.00,6.96,69.75,60.00,101.67,30.09,21.60,20.00,75.00,54.93,46.60,43.33,0.00,9.75,48.81,6.67,82.22,11.04,41.77,63.33,8.33,18.89
1,140.57,95.71,110.00,72.04,7.80,4.00,4.50,6.97,7.52,33.33,3.00,9.79,72.14,60.00,106.67,30.53,21.29,19.50,75.00,54.20,44.81,36.67,0.00,8.89,49.00,6.67,84.44,10.93,38.98,56.67,0.00,17.05
1,140.07,98.57,110.00,70.66,8.33,4.50,5.50,7.20,7.22,30.00,3.00,9.92,68.17,55.00,103.33,28.73,22.41,20.00,80.00,58.05,46.77,40.00,0.00,9.47,49.72,6.67,88.89,11.22,40.03,56.67,0.00,17.36
1,137.68,97.14,103.33,69.29,8.33,4.50,5.50,7.20,7.21,30.00,3.00,9.92,68.27,55.00,105.00,27.77,22.87,21.00,80.00,58.98,47.31,43.33,0.00,9.72,49.23,6.67,88.89,11.25,39.05,46.67,0.00,16.07
1,136.24,95.71,103.33,68.40,6.46,3.50,4.50,5.14,7.20,30.00,3.00,9.92,65.46,40.00,100.00,26.22,25.09,22.50,87.50,67.30,48.18,46.67,0.00,10.00,49.87,6.67,93.33,11.49,38.86,46.67,0.00,16.01
1,137.27,95.71,96.67,71.03,6.18,3.50,4.50,4.89,5.37,20.00,2.00,7.28,65.91,45.00,98.33,26.67,25.51,23.00,87.50,70.79,48.09,46.67,0.00,10.02,48.33,6.67,86.67,11.23,39.79,46.67,0.00,15.92
1,137.33,98.57,103.33,69.04,6.18,3.50,4.50,4.89,5.33,20.00,2.00,7.27,66.59,45.00,101.67,26.90,26.30,23.00,87.50,72.95,48.25,46.67,0.00,10.03,49.02,6.67,86.67,11.63,39.37,43.33,0.00,15.61
1,139.51,101.43,110.00,68.97,6.18,3.50,4.50,4.89,5.33,20.00,2.00,7.27,68.11,50.00,100.00,27.82,26.85,23.50,90.00,76.01,46.57,40.00,0.00,9.20,49.60,8.89,84.44,12.22,39.35,43.33,0.00,15.66
1,141.00,101.43,110.00,72.10,6.17,3.50,4.50,4.89,5.33,20.00,2.00,7.27,69.70,50.00,96.67,30.81,28.18,24.50,95.00,79.73,48.19,40.00,0.00,9.76,49.19,8.89,80.00,12.22,39.67,43.33,8.33,15.65
1,143.91,105.71,116.67,71.95,6.55,4.00,5.00,4.98,5.32,20.00,2.00,7.27,70.16,50.00,96.67,30.45,26.56,23.00,85.00,76.03,46.92,40.00,0.00,9.46,47.99,8.89,75.56,12.06,39.70,43.33,8.33,15.66
1,142.47,104.29,110.00,71.30,8.58,5.00,6.00,7.30,5.33,20.00,2.00,7.27,68.19,40.00,93.33,28.64,27.51,23.50,90.00,79.25,46.75,36.67,0.00,9.43,47.82,8.89,75.56,12.01,39.09,43.33,8.33,15.65
1,142.73,101.43,110.00,73.10,8.71,5.00,6.00,7.33,5.33,20.00,2.00,7.27,72.32,50.00,100.00,30.87,27.42,24.00,90.00,78.83,47.61,36.67,0.00,9.48,46.56,6.67,73.33,10.86,38.84,43.33,8.33,15.19
1,141.95,101.43,103.33,72.47,8.57,5.00,6.00,7.32,5.33,20.00,2.00,7.27,73.62,55.00,101.67,31.13,26.86,23.00,85.00,78.59,46.79,36.67,0.00,9.44,45.56,4.44,73.33,10.67,38.72,46.67,8.33,15.24
1,141.16,100.00,100.00,72.22,7.51,4.50,5.00,6.49,5.33,20.00,2.00,7.27,75.19,60.00,108.33,31.61,27.70,23.50,90.00,82.42,45.47,33.33,0.00,8.80,45.86,6.67,75.56,10.65,39.43,50.00,8.33,15.83
1,143.34,100.00,103.33,73.85,5.28,3.00,3.50,4.04,5.34,20.00,2.00,7.27,73.58,55.00,106.67,31.50,28.68,24.00,95.00,85.38,45.22,33.33,0.00,8.79,46.08,6.67,77.78,10.66,37.93,50.00,8.33,14.66
1,142.94,101.43,106.67,71.01,5.00,3.00,3.50,3.80,6.43,26.67,2.50,8.70,73.63,55.00,108.33,30.75,28.68,24.00,92.50,83.88,45.21,36.67,0.00,8.77,47.42,8.89,82.22,10.97,38.75,50.00,8.33,15.30
1,142.69,101.43,103.33,70.73,4.99,3.00,3.50,3.80,6.93,30.00,2.50,9.17,74.91,55.00,106.67,32.91,29.08,24.50,95.00,85.39,45.73,36.67,0.00,8.81,47.41,8.89,77.78,11.15,38.79,50.00,8.33,15.31
1,142.28,101.43,100.00,71.17,4.99,3.00,3.50,3.80,6.94,30.00,2.50,9.17,75.62,65.00,103.33,34.50,29.06,24.00,95.00,85.63,44.94,30.00,0.00,8.21,46.44,8.89,73.33,11.02,40.02,53.33,8.33,16.34
1,142.31,102.86,96.67,71.52,5.40,3.00,3.50,3.80,7.61,33.33,2.50,9.71,74.33,60.00,101.67,34.15,26.55,21.50,87.50,78.42,45.56,26.67,0.00,8.20,46.95,11.11,71.11,10.62,39.63,53.33,8.33,15.90
1,142.66,101.43,100.00,73.57,7.12,4.00,4.50,6.10,7.59,33.33,2.50,9.63,78.17,70.00,103.33,37.04,25.15,20.50,82.50,73.60,45.36,23.33,0.00,8.30,54.67,20.00,80.00,15.94,39.29,53.33,8.33,15.88
1,140.20,100.00,100.00,72.96,7.16,4.00,4.50,6.11,7.82,33.33,2.50,9.95,78.35,75.00,103.33,35.98,24.04,19.50,77.50,70.56,51.39,33.33,15.00,11.02,63.55,28.89,88.89,24.74,41.30,60.00,8.33,18.05
0,149.67,105.71,113.33,81.56,7.17,4.00,4.50,6.11,7.83,33.33,2.50,9.95,80.45,80.00,113.33,35.96,22.69,18.50,72.50,66.68,57.20,43.33,20.00,12.92,65.15,31.11,88.89,25.86,41.48,56.67,8.33,17.59
0,156.75,108.57,126.67,87.07,5.82,3.00,3.50,5.05,6.90,30.00,2.00,9.71,81.93,90.00,113.33,37.97,22.36,18.00,72.50,66.22,60.97,46.67,30.00,17.15,69.03,35.56,91.11,29.89,40.81,50.00,8.33,16.94
0,150.91,104.29,116.67,86.22,5.21,2.50,2.50,4.75,5.19,23.33,1.50,6.18,86.51,105.00,118.33,39.72,21.36,17.50,67.50,63.28,69.14,63.33,55.00,22.63,69.70,35.56,88.89,30.90,40.58,46.67,8.33,16.14
0,151.48,105.71,120.00,84.48,5.17,2.50,2.50,4.74,5.15,23.33,1.50,6.17,87.83,115.00,116.67,42.51,19.86,16.00,65.00,59.19,78.24,70.00,70.00,33.65,70.04,35.56,88.89,30.94,39.34,46.67,8.33,15.80
0,150.38,104.29,116.67,83.37,5.16,2.50,2.50,4.74,5.16,23.33,1.50,6.17,85.55,115.00,113.33,41.65,18.05,14.50,60.00,53.03,83.20,80.00,70.00,36.58,71.51,35.56,88.89,31.46,38.99,46.67,8.33,15.77
0,149.36,101.43,120.00,83.41,5.16,2.50,2.50,4.74,5.15,23.33,1.50,6.17,82.26,110.00,108.33,40.25,15.73,13.00,52.50,44.11,89.16,86.67,80.00,43.02,72.25,37.78,91.11,32.03,37.07,46.67,8.33,15.24
0,150.76,97.14,116.67,87.36,6.82,3.50,3.50,6.29,5.15,23.33,1.50,6.17,80.99,110.00,106.67,39.61,14.00,11.50,47.50,39.60,92.12,93.33,80.00,44.40,71.70,37.78,91.11,31.77,36.27,43.33,8.33,14.61
0,147.96,91.43,116.67,87.47,7.34,3.50,3.50,6.31,5.15,23.33,1.50,6.17,78.09,105.00,103.33,37.92,12.61,10.50,45.00,34.31,92.34,96.67,80.00,44.60,69.61,35.56,88.89,30.73,35.20,40.00,8.33,13.56
0,146.79,92.86,113.33,85.17,9.71,5.00,5.50,8.90,5.15,23.33,1.50,6.17,74.69,100.00,105.00,33.95,11.55,10.00,40.00,31.26,93.79,100.00,80.00,45.20,69.53,35.56,86.67,30.62,32.57,33.33,0.00,12.06
0,143.71,91.43,106.67,83.14,9.96,5.00,5.50,9.53,5.15,23.33,1.50,6.17,74.21,100.00,101.67,33.58,11.09,9.50,40.00,30.29,95.18,103.33,85.00,47.36,71.25,37.78,93.33,31.36,31.94,33.33,0.00,11.81
0,140.72,90.00,100.00,82.70,8.00,4.00,4.50,7.41,5.15,23.33,1.50,6.17,74.32,100.00,106.67,33.31,9.76,8.50,35.00,26.56,96.52,110.00,85.00,47.73,70.89,37.78,88.89,31.35,32.24,33.33,0.00,11.88
0,142.76,90.00,103.33,84.57,7.73,4.00,4.50,7.18,6.64,26.67,2.50,8.79,69.97,95.00,100.00,31.76,8.59,7.50,30.00,23.36,96.22,113.33,85.00,47.99,70.02,37.78,86.67,31.30,30.84,26.67,0.00,10.91
0,142.68,85.71,103.33,86.49,7.73,4.00,4.50,7.17,7.36,30.00,2.50,9.66,66.33,85.00,93.33,29.50,7.27,6.00,25.00,21.20,94.71,110.00,85.00,47.59,67.99,37.78,80.00,30.85,29.47,23.33,0.00,10.34
0,143.79,88.57,110.00,87.75,7.73,4.00,4.50,7.17,7.36,30.00,2.50,9.66,63.10,80.00,85.00,28.30,5.51,4.50,20.00,14.23,98.13,116.67,85.00,49.46,67.64,35.56,80.00,30.23,27.87,16.67,0.00,9.66
0,141.56,85.71,110.00,86.36,7.72,4.00,4.50,7.17,7.75,33.33,2.50,9.84,62.26,80.00,85.00,27.29,5.08,4.50,17.50,14.02,96.99,116.67,85.00,49.22,64.71,35.56,68.89,29.47,27.54,16.67,0.00,9.07
0,138.57,81.43,103.33,85.57,8.19,4.50,5.00,7.28,9.46,36.67,3.00,13.06,60.98,80.00,83.33,26.88,3.92,3.50,15.00,10.08,96.61,113.33,85.00,49.12,63.31,35.56,66.67,29.32,26.18,13.33,0.00,8.59
0,135.39,77.14,100.00,84.88,8.49,4.50,5.50,7.49,8.47,30.00,3.00,11.52,56.29,70.00,81.67,22.95,1.55,1.00,5.00,4.58,95.17,113.33,85.00,48.99,60.82,33.33,60.00,28.41,24.45,10.00,0.00,7.72
0,135.61,80.00,103.33,84.10,8.50,4.50,5.50,7.49,8.45,30.00,3.00,11.51,53.23,60.00,81.67,19.97,0.19,0.00,0.00,0.32,96.46,116.67,85.00,49.29,60.57,33.33,62.22,28.07,22.23,6.67,0.00,6.28
0,133.87,75.71,100.00,83.16,8.49,4.50,5.50,7.49,8.26,30.00,3.00,11.51,51.67,60.00,78.33,19.47,0.01,0.00,0.00,0.00,95.48,120.00,85.00,49.31,59.57,33.33,60.00,27.79,22.01,6.67,0.00,6.35
0,131.17,74.29,96.67,79.97,6.46,3.50,4.50,5.22,6.26,20.00,2.00,9.62,48.04,55.00,76.67,16.57,0.00,0.00,0.00,0.00,92.50,116.67,85.00,48.58,54.15,26.67,53.33,24.14,21.52,6.67,0.00,6.07
0,131.55,75.71,103.33,76.51,6.33,3.50,4.50,5.19,5.43,16.67,2.00,7.26,46.23,50.00,75.00,15.41,0.00,0.00,0.00,0.00,87.86,110.00,70.00,46.20,45.24,15.56,46.67,16.70,18.83,0.00,0.00,4.22
0,127.54,74.29,100.00,69.54,6.33,3.50,4.50,5.19,5.41,16.67,2.00,7.25,42.82,40.00,65.00,14.00,0.00,0.00,0.00,0.00,83.58,96.67,65.00,44.24,40.88,11.11,42.22,12.43,17.46,0.00,0.00,3.15
0,122.85,68.57,86.67,67.94,6.33,3.50,4.50,5.19,5.40,16.67,2.00,7.25,36.99,25.00,58.33,10.51,0.00,0.00,0.00,0.00,76.90,93.33,55.00,39.70,35.87,4.44,37.78,8.81,16.78,0.00,0.00,2.91
0,117.46,64.29,83.33,63.66,6.31,3.50,4.50,5.19,5.40,16.67,2.00,7.25,35.15,20.00,58.33,9.27,0.00,0.00,0.00,0.00,69.08,76.67,35.00,35.24,32.96,4.44,33.33,6.67,15.20,0.00,0.00,2.56
0,115.14,62.86,80.00,60.47,7.03,4.00,5.50,5.43,5.39,16.67,2.00,7.25,30.02,0.00,58.33,5.11,0.00,0.00,0.00,0.00,61.91,70.00,20.00,27.32,32.49,4.44,33.33,6.38,14.71,0.00,0.00,2.30
0,118.42,64.29,86.67,61.67,8.27,5.00,6.50,5.92,5.39,16.67,2.00,7.25,32.41,0.00,63.33,5.95,0.00,0.00,0.00,0.00,53.25,56.67,15.00,20.67,30.69,4.44,28.89,5.61,14.91,0.00,0.00,2.42
0,117.67,67.14,80.00,59.56,10.19,6.00,8.50,8.36,5.39,16.67,2.00,7.25,33.59,0.00,65.00,6.17,0.00,0.00,0.00,0.00,46.12,46.67,10.00,15.15,29.98,4.44,26.67,5.21,14.80,0.00,0.00,2.40
0,110.09,64.29,73.33,51.57,9.33,5.50,7.50,7.58,5.40,16.67,2.00,7.25,33.55,0.00,63.33,6.12,0.00,0.00,0.00,0.00,41.29,40.00,5.00,11.23,28.52,2.22,24.44,4.58,14.99,0.00,0.00,2.46
0,108.02,67.14,66.67,48.80,9.12,5.50,7.50,7.42,5.40,16.67,2.00,7.25,33.31,0.00,65.00,5.87,0.00,0.00,0.00,0.00,38.81,36.67,5.00,10.25,27.62,2.22,20.00,4.33,14.43,0.00,0.00,2.34
0,107.48,67.14,60.00,47.84,7.09,4.50,6.00,5.13,5.39,16.67,2.00,7.25,33.15,0.00,66.67,5.61,0.00,0.00,0.00,0.00,36.64,33.33,5.00,9.74,27.69,2.22,22.22,4.37,14.42,0.00,0.00,2.34
0,110.53,68.57,66.67,51.10,5.81,3.50,5.00,4.12,6.76,23.33,2.50,8.87,33.66,0.00,68.33,5.80,0.00,0.00,0.00,0.00,32.50,26.67,0.00,6.79,25.40,0.00,17.78,3.58,14.67,0.00,0.00,2.43
0,109.61,67.14,66.67,49.87,5.79,3.50,5.00,4.12,6.93,23.33,2.50,9.00,31.91,0.00,63.33,5.29,0.00,0.00,0.00,0.00,32.79,26.67,0.00,6.69,23.58,0.00,15.56,2.94,13.98,0.00,0.00,2.20
0,104.55,64.29,60.00,45.93,5.78,3.50,5.00,4.12,6.52,23.33,2.00,9.00,31.77,0.00,61.67,5.41,0.00,0.00,0.00,0.00,29.46,13.33,0.00,5.60,23.35,0.00,15.56,2.83,13.19,0.00,0.00,2.04
0,102.09,64.29,53.33,44.93,7.26,4.00,6.00,5.86,5.00,16.67,1.50,5.59,31.60,0.00,61.67,5.40,0.00,0.00,0.00,0.00,29.02,13.33,0.00,5.59,23.22,0.00,15.56,2.84,13.14,0.00,0.00,1.98
0,99.20,62.86,46.67,41.80,8.22,5.00,6.50,6.59,6.96,23.33,2.50,9.02,32.52,0.00,63.33,5.51,0.00,0.00,0.00,0.00,25.73,6.67,0.00,4.06,21.31,0.00,11.11,2.53,13.13,0.00,0.00,2.04
0,100.03,62.86,50.00,40.59,8.30,5.00,6.50,6.60,6.98,23.33,2.50,9.07,33.66,0.00,68.33,5.69,0.00,0.00,0.00,0.00,25.07,6.67,0.00,3.32,20.83,0.00,11.11,2.47,14.03,0.00,0.00,2.35
0,102.04,67.14,53.33,41.44,8.30,5.00,6.50,6.60,5.26,16.67,1.50,7.64,33.30,0.00,66.67,5.75,0.00,0.00,0.00,0.00,24.92,6.67,0.00,3.29,21.14,0.00,11.11,2.49,13.58,0.00,0.00,2.22
0,102.48,68.57,53.33,40.53,7.53,4.50,5.50,6.29,4.43,13.33,1.50,5.32,33.39,0.00,65.00,5.93,0.00,0.00,0.00,0.00,24.52,6.67,0.00,3.15,21.27,0.00,11.11,2.74,13.49,0.00,0.00,2.19
0,99.98,64.29,46.67,39.50,7.51,4.50,5.50,6.28,4.40,13.33,1.50,5.32,32.34,0.00,61.67,5.75,0.00,0.00,0.00,0.00,23.80,6.67,0.00,3.09,21.44,0.00,8.89,2.84,13.38,0.00,0.00,2.13
0,100.00,64.29,46.67,39.39,7.51,4.50,5.50,6.28,4.39,13.33,1.50,5.32,32.77,0.00,63.33,5.84,0.00,0.00,0.00,0.00,20.72,0.00,0.00,2.03,20.61,0.00,8.89,2.61,13.47,0.00,0.00,2.16
0,101.58,62.86,46.67,42.00,7.51,4.50,5.50,6.28,4.41,13.33,1.50,5.32,32.92,0.00,65.00,5.87,0.00,0.00,0.00,0.00,20.92,0.00,0.00,2.05,20.47,0.00,8.89,2.59,12.90,0.00,0.00,1.97
0,103.63,64.29,43.33,43.61,7.50,4.50,5.50,6.28,4.39,13.33,1.50,5.32,32.36,0.00,63.33,5.64,0.00,0.00,0.00,0.00,19.31,0.00,0.00,1.85,19.36,0.00,6.67,2.34,12.32,0.00,0.00,1.83
0,100.21,61.43,36.67,42.84,7.50,4.50,5.50,6.28,4.39,13.33,1.50,5.32,32.70,0.00,65.00,5.72,0.00,0.00,0.00,0.00,18.65,0.00,0.00,1.73,19.86,0.00,6.67,2.39,12.33,0.00,0.00,1.82
0,99.50,62.86,36.67,41.49,7.50,4.50,5.50,6.28,4.39,13.33,1.50,5.32,32.51,0.00,65.00,5.76,0.00,0.00,0.00,0.00,18.57,0.00,0.00,1.72,19.89,0.00,4.44,2.50,12.19,0.00,0.00,1.79
0,101.83,65.71,40.00,41.47,7.50,4.50,5.50,6.28,4.39,13.33,1.50,5.32,31.65,0.00,61.67,5.67,0.00,0.00,0.00,0.00,18.40,0.00,0.00,1.73,19.46,0.00,2.22,2.40,12.43,0.00,0.00,1.77
0,103.18,67.14,40.00,43.24,7.47,4.50,5.50,6.26,4.39,13.33,1.50,5.32,31.76,0.00,58.33,5.89,0.00,0.00,0.00,0.00,17.64,0.00,0.00,1.65,19.14,0.00,2.22,2.33,12.45,0.00,0.00,1.77
0,102.99,65.71,36.67,44.95,8.40,5.00,6.00,7.28,4.39,13.33,1.50,5.32,29.27,0.00,53.33,4.93,0.00,0.00,0.00,0.00,18.05,0.00,0.00,1.79,19.34,0.00,4.44,2.32,12.04,0.00,0.00,1.66
0,102.05,65.71,36.67,44.91,7.19,4.00,4.00,6.32,4.39,13.33,1.50,5.32,29.05,0.00,51.67,4.81,0.00,0.00,0.00,0.00,18.56,0.00,0.00,1.83,18.97,0.00,4.44,2.21,12.20,0.00,0.00,1.66
0,102.30,64.29,36.67,44.51,8.04,4.50,5.50,6.30,4.39,13.33,1.50,5.32,29.25,0.00,50.00,4.75,0.00,0.00,0.00,0.00,17.76,0.00,0.00,1.70,18.69,0.00,4.44,2.19,12.45,0.00,0.00,1.68
0,103.12,61.43,40.00,45.43,8.87,5.00,6.00,7.97,4.39,13.33,1.50,5.32,29.36,0.00,50.00,4.84,0.00,0.00,0.00,0.00,17.93,0.00,0.00,1.72,18.37,0.00,4.44,2.18,12.21,0.00,0.00,1.60
0,104.32,61.43,40.00,47.23,8.90,5.00,6.00,7.97,4.39,13.33,1.50,5.32,29.69,0.00,48.33,5.10,0.00,0.00,0.00,0.00,17.91,0.00,0.00,1.73,18.71,0.00,4.44,2.44,13.14,0.00,0.00,1.84
0,97.65,55.71,30.00,43.62,8.90,5.00,6.00,7.97,3.33,10.00,1.00,4.00,29.22,0.00,48.33,4.89,0.00,0.00,0.00,0.00,17.45,0.00,0.00,1.70,18.41,0.00,4.44,2.46,12.97,0.00,0.00,1.74
0,98.81,55.71,33.33,44.17,8.90,5.00,6.00,7.97,4.75,16.67,2.00,6.67,29.10,0.00,50.00,4.93,0.00,0.00,0.00,0.00,16.98,0.00,0.00,1.59,18.63,0.00,4.44,2.46,12.93,0.00,0.00,1.76
0,98.17,55.71,33.33,43.36,8.90,5.00,6.00,7.97,6.61,23.33,3.00,9.86,29.13,0.00,53.33,4.78,0.00,0.00,0.00,0.00,15.72,0.00,0.00,1.29,18.23,0.00,4.44,2.38,13.24,0.00,0.00,1.88
0,97.23,54.29,33.33,43.17,8.49,5.00,5.50,7.97,7.30,30.00,3.00,10.66,29.03,0.00,53.33,4.71,0.00,0.00,0.00,0.00,15.67,0.00,0.00,1.27,18.47,0.00,4.44,2.38,13.38,0.00,0.00,1.92
0,95.79,51.43,33.33,41.78,6.63,3.50,4.50,5.64,5.41,23.33,2.00,7.50,28.42,0.00,51.67,4.44,0.00,0.00,0.00,0.00,15.60,0.00,0.00,1.29,18.81,0.00,4.44,2.39,13.25,0.00,0.00,1.91
0,94.08,50.00,30.00,40.31,6.38,3.50,4.50,5.49,5.13,23.33,2.00,7.15,28.00,0.00,46.67,4.51,0.00,0.00,0.00,0.00,16.29,0.00,0.00,1.45,19.32,0.00,4.44,2.50,12.49,0.00,0.00,1.59
0,94.49,48.57,26.67,39.84,6.39,3.50,4.50,5.49,5.12,23.33,2.00,7.15,27.91,0.00,45.00,4.52,0.00,0.00,0.00,0.00,15.86,0.00,0.00,1.40,19.24,0.00,4.44,2.44,12.93,0.00,0.00,1.66
0,91.87,45.71,23.33,38.01,8.25,4.50,5.50,7.47,6.17,33.33,2.00,7.69,27.74,0.00,46.67,4.38,0.00,0.00,0.00,0.00,15.91,0.00,0.00,1.41,18.28,0.00,4.44,2.12,12.88,0.00,0.00,1.68
0,91.78,47.14,23.33,37.87,9.15,5.50,6.50,8.06,8.50,43.33,3.00,10.40,28.53,0.00,48.33,4.51,0.00,0.00,0.00,0.00,15.99,0.00,0.00,1.44,18.36,0.00,4.44,2.01,13.59,0.00,0.00,1.90
0,90.46,45.71,23.33,37.49,9.21,5.50,6.50,8.07,9.36,46.67,3.50,12.86,28.15,0.00,48.33,4.42,0.00,0.00,0.00,0.00,16.34,0.00,0.00,1.49,18.33,0.00,4.44,2.02,13.64,0.00,0.00,1.99
0,88.00,44.29,23.33,34.42,9.22,5.50,6.50,8.07,9.38,46.67,3.50,12.87,27.52,0.00,46.67,4.31,0.00,0.00,0.00,0.00,16.48,0.00,0.00,1.53,18.55,0.00,4.44,2.11,13.83,0.00,0.00,2.01
0,86.33,44.29,20.00,33.30,9.22,5.50,6.50,8.07,9.38,46.67,3.50,12.87,27.82,0.00,46.67,4.45,0.00,0.00,0.00,0.00,16.78,0.00,0.00,1.54,19.00,0.00,4.44,2.14,14.03,0.00,0.00,2.05
0,85.49,42.86,23.33,31.80,9.22,5.50,6.50,8.07,9.38,46.67,3.50,12.87,28.16,0.00,46.67,4.64,0.00,0.00,0.00,0.00,17.55,0.00,0.00,1.69,18.73,0.00,4.44,2.12,13.63,0.00,0.00,1.99
0,84.30,40.00,20.00,30.73,9.22,5.50,6.50,8.07,9.38,46.67,3.50,12.87,27.26,0.00,43.33,4.38,0.00,0.00,0.00,0.00,17.28,0.00,0.00,1.69,18.72,0.00,4.44,2.10,13.65,0.00,0.00,2.01
0,85.04,44.29,20.00,31.80,9.23,5.50,6.50,8.07,9.39,46.67,3.50,12.87,27.39,0.00,43.33,4.35,0.00,0.00,0.00,0.00,17.36,0.00,0.00,1.67,18.32,0.00,4.44,1.99,14.41,0.00,0.00,2.37
0,82.68,44.29,20.00,30.04,8.79,5.00,5.50,7.91,9.39,46.67,3.50,12.87,27.36,0.00,43.33,4.16,0.00,0.00,0.00,0.00,17.65,0.00,0.00,1.77,18.54,0.00,4.44,2.03,14.55,0.00,0.00,2.48
0,79.63,40.00,13.33,26.89,7.30,4.00,4.50,6.78,9.39,46.67,3.50,12.87,27.48,0.00,43.33,4.13,0.00,0.00,0.00,0.00,17.02,0.00,0.00,1.64,18.36,0.00,2.22,1.97,15.00,0.00,0.00,2.56
0,79.23,37.14,13.33,26.74,7.10,4.00,4.50,6.65,9.39,46.67,3.50,12.87,28.52,0.00,50.00,4.37,0.00,0.00,0.00,0.00,16.59,0.00,0.00,1.56,18.25,0.00,2.22,1.99,15.41,0.00,0.00,2.73
0,78.00,35.71,13.33,26.49,5.42,3.00,3.00,5.05,9.38,46.67,3.50,12.87,29.51,0.00,55.00,4.81,0.00,0.00,0.00,0.00,16.76,0.00,0.00,1.59,18.16,0.00,2.22,1.96,15.28,0.00,0.00,2.76
0,76.53,35.71,10.00,26.01,3.33,2.00,2.00,2.60,9.37,46.67,3.50,12.87,29.76,0.00,56.67,4.84,0.00,0.00,0.00,0.00,16.52,0.00,0.00,1.55,18.21,0.00,2.22,1.94,15.55,0.00,0.00,2.91
0,76.80,35.71,13.33,26.09,3.26,2.00,2.00,2.59,9.37,46.67,3.50,12.87,28.54,0.00,53.33,4.51,0.00,0.00,0.00,0.00,16.47,0.00,0.00,1.55,17.77,0.00,2.22,1.76,15.48,0.00,0.00,2.94
0,77.07,35.71,16.67,25.25,3.27,2.00,2.00,2.59,9.40,46.67,3.50,12.87,28.28,0.00,50.00,4.41,0.00,0.00,0.00,0.00,16.47,0.00,0.00,1.54,17.74,0.00,2.22,1.63,15.38,0.00,0.00,2.96
0,75.26,35.71,13.33,23.67,3.80,2.50,2.50,2.76,8.10,40.00,2.50,11.69,28.99,0.00,48.33,4.72,0.00,0.00,0.00,0.00,16.18,0.00,0.00,1.53,17.66,0.00,2.22,1.61,15.49,0.00,0.00,3.02
0,74.96,34.29,13.33,23.55,5.75,3.50,3.50,4.97,6.06,33.33,1.50,7.14,28.69,0.00,48.33,4.50,0.00,0.00,0.00,0.00,16.57,0.00,0.00,1.55,18.61,0.00,2.22,1.72,15.35,0.00,0.00,2.92
0,74.17,34.29,13.33,23.46,7.87,4.50,5.00,7.58,4.85,23.33,1.50,5.79,27.75,0.00,45.00,4.38,0.00,0.00,0.00,0.00,16.80,0.00,0.00,1.58,18.69,0.00,2.22,1.71,14.83,0.00,0.00,2.85
0,72.85,34.29,13.33,22.83,9.97,5.50,6.50,10.10,4.73,23.33,1.50,5.73,28.01,0.00,45.00,4.39,0.00,0.00,0.00,0.00,16.46,0.00,0.00,1.56,18.99,0.00,2.22,1.75,14.86,0.00,0.00,2.83
0,74.12,35.71,16.67,23.03,10.03,5.50,6.50,10.11,4.73,23.33,1.50,5.73,28.89,0.00,50.00,4.58,0.00,0.00,0.00,0.00,15.73,0.00,0.00,1.39,18.92,0.00,2.22,1.67,14.74,0.00,0.00,2.79
0,71.58,32.86,16.67,22.58,10.03,5.50,6.50,10.11,4.73,23.33,1.50,5.73,28.77,0.00,51.67,4.45,0.00,0.00,0.00,0.00,15.67,0.00,0.00,1.41,19.50,0.00,2.22,1.76,14.79,0.00,0.00,2.83
0,70.09,32.86,16.67,21.94,8.59,5.00,5.50,8.48,3.96,13.33,1.50,5.22,28.99,0.00,50.00,4.54,0.00,0.00,0.00,0.00,16.53,0.00,0.00,1.55,20.16,0.00,2.22,1.87,14.63,0.00,0.00,2.78
0,68.80,30.00,16.67,21.25,7.34,3.50,4.50,7.57,2.71,6.67,1.00,3.69,29.31,0.00,51.67,4.75,0.00,0.00,0.00,0.00,16.61,0.00,0.00,1.56,19.61,0.00,2.22,1.84,14.25,0.00,0.00,2.66
0,69.15,31.43,16.67,21.66,7.22,3.50,4.50,7.52,1.55,6.67,0.00,0.76,29.62,0.00,51.67,4.85,0.00,0.00,0.00,0.00,16.45,0.00,0.00,1.50,19.61,0.00,2.22,1.80,13.88,0.00,0.00,2.52
0,68.72,32.86,16.67,22.01,7.21,3.50,4.50,7.52,2.19,10.00,0.00,1.22,29.19,0.00,48.33,4.81,0.00,0.00,0.00,0.00,16.21,0.00,0.00,1.46,19.73,0.00,2.22,1.85,14.11,0.00,0.00,2.54
0,69.86,34.29,16.67,22.53,7.21,3.50,4.50,7.52,2.26,10.00,0.00,1.25,29.41,0.00,50.00,4.78,0.00,0.00,0.00,0.00,16.45,0.00,0.00,1.46,19.48,0.00,2.22,1.84,14.56,0.00,0.00,2.66
0,67.01,34.29,13.33,21.36,7.21,3.50,4.50,7.52,2.27,10.00,0.00,1.25,28.61,0.00,46.67,4.59,0.00,0.00,0.00,0.00,15.60,0.00,0.00,1.33,19.28,0.00,2.22,1.81,14.91,0.00,0.00,2.73
0,68.29,38.57,16.67,22.09,8.70,4.00,5.50,9.26,2.27,10.00,0.00,1.25,28.69,0.00,46.67,4.58,0.00,0.00,0.00,0.00,15.20,0.00,0.00,1.29,18.71,0.00,2.22,1.76,15.01,0.00,0.00,2.75
0,66.70,35.71,13.33,21.95,10.73,5.50,7.00,11.29,3.63,16.67,0.50,2.81,29.54,0.00,51.67,4.74,0.00,0.00,0.00,0.00,15.24,0.00,0.00,1.28,19.62,0.00,4.44,1.88,14.30,0.00,0.00,2.48
0,65.11,31.43,13.33,21.54,11.14,6.00,7.00,11.53,6.00,23.33,1.50,6.46,28.94,0.00,48.33,4.74,0.00,0.00,0.00,0.00,14.82,0.00,0.00,1.15,19.40,0.00,4.44,1.84,13.86,0.00,0.00,2.32
0,64.86,31.43,13.33,20.92,11.18,6.00,7.00,11.54,7.78,30.00,2.50,10.19,28.84,0.00,48.33,4.68,0.00,0.00,0.00,0.00,14.86,0.00,0.00,1.11,19.58,0.00,4.44,1.88,13.60,0.00,0.00,2.33
0,61.35,30.00,13.33,19.91,11.17,6.00,7.00,11.54,7.81,30.00,2.50,10.21,28.57,0.00,46.67,4.59,0.00,0.00,0.00,0.00,14.98,0.00,0.00,1.09,19.41,0.00,4.44,1.84,13.08,0.00,0.00,2.21
0,61.30,30.00,13.33,19.82,11.15,6.00,7.00,11.54,7.81,30.00,2.50,10.21,27.06,0.00,41.67,4.29,0.00,0.00,0.00,0.00,14.97,0.00,0.00,1.08,20.24,0.00,4.44,1.93,13.56,0.00,0.00,2.46
0,59.14,28.57,13.33,17.77,11.15,6.00,7.00,11.54,7.81,30.00,2.50,10.21,26.44,0.00,38.33,4.10,0.00,0.00,0.00,0.00,14.89,0.00,0.00,1.05,20.32,0.00,4.44,1.94,13.39,0.00,0.00,2.38
0,60.67,32.86,13.33,18.18,11.15,6.00,7.00,11.54,7.82,30.00,2.50,10.21,27.03,0.00,40.00,4.35,0.00,0.00,0.00,0.00,14.69,0.00,0.00,1.03,20.13,0.00,2.22,1.89,13.01,0.00,0.00,2.30
0,59.62,34.29,10.00,17.79,11.14,6.00,7.00,11.54,7.79,30.00,2.50,10.21,27.99,0.00,43.33,4.51,0.00,0.00,0.00,0.00,14.86,0.00,0.00,1.05,20.24,0.00,2.22,1.93,12.69,0.00,0.00,2.07
0,59.56,34.29,10.00,18.22,10.77,5.50,6.50,11.47,7.79,30.00,2.50,10.21,27.84,0.00,45.00,4.44,0.00,0.00,0.00,0.00,14.99,0.00,0.00,1.07,20.65,0.00,2.22,2.01,13.24,0.00,0.00,2.27
0,58.72,32.86,10.00,17.65,9.10,5.00,5.50,9.58,7.79,30.00,2.50,10.21,28.19,0.00,43.33,4.59,0.00,0.00,0.00,0.00,15.02,0.00,0.00,1.06,20.86,0.00,2.22,2.12,13.04,0.00,0.00,2.26
0,59.71,32.86,10.00,17.66,6.70,3.50,4.00,6.75,7.79,30.00,2.50,10.21,28.53,0.00,43.33,4.67,0.00,0.00,0.00,0.00,15.10,0.00,0.00,1.03,20.78,0.00,2.22,2.06,13.28,0.00,0.00,2.30
0,60.61,32.86,10.00,17.71,4.63,2.50,2.50,4.21,7.79,30.00,2.50,10.21,28.78,0.00,43.33,4.73,0.00,0.00,0.00,0.00,15.26,0.00,0.00,1.03,20.26,0.00,2.22,1.99,13.72,0.00,0.00,2.36
0,58.39,31.43,6.67,16.81,4.37,2.50,2.50,4.02,7.79,30.00,2.50,10.21,27.92,0.00,40.00,4.52,0.00,0.00,0.00,0.00,15.59,0.00,0.00,1.07,20.45,0.00,2.22,2.04,13.73,0.00,0.00,2.36
0,56.66,30.00,6.67,15.93,4.37,2.50,2.50,4.02,7.79,30.00,2.50,10.21,27.01,0.00,36.67,4.34,0.00,0.00,0.00,0.00,15.62,0.00,0.00,1.03,20.03,0.00,2.22,1.96,13.96,0.00,0.00,2.34
0,59.36,32.86,13.33,17.94,4.48,2.50,2.50,4.02,7.79,30.00,2.50,10.21,27.09,0.00,36.67,4.48,0.00,0.00,0.00,0.00,15.21,0.00,0.00,0.92,19.98,0.00,2.22,2.04,14.32,0.00,0.00,2.39
0,57.96,32.86,13.33,17.56,4.90,3.00,3.00,4.17,7.77,30.00,2.50,10.21,26.40,0.00,35.00,4.14,0.00,0.00,0.00,0.00,14.91,0.00,0.00,0.84,20.10,0.00,2.22,2.04,14.45,0.00,0.00,2.46
0,57.51,31.43,13.33,17.28,6.32,4.00,4.00,5.18,7.05,26.67,2.50,9.93,26.57,0.00,35.00,4.28,0.00,0.00,0.00,0.00,14.89,0.00,0.00,0.83,20.28,0.00,2.22,2.04,14.37,0.00,0.00,2.47
0,61.69,34.29,20.00,18.88,6.50,4.00,4.00,5.29,6.22,20.00,2.50,9.08,26.59,0.00,35.00,4.19,0.00,0.00,0.00,0.00,15.18,0.00,0.00,0.85,19.92,0.00,2.22,2.00,14.11,0.00,0.00,2.46
0,62.49,32.86,20.00,19.77,6.50,4.00,4.00,5.29,5.99,20.00,2.50,8.96,26.20,0.00,35.00,4.10,0.00,0.00,0.00,0.00,14.87,0.00,0.00,0.84,19.97,0.00,2.22,1.91,13.40,0.00,0.00,2.29
0,61.56,30.00,20.00,19.03,6.50,4.00,4.00,5.29,5.98,20.00,2.50,8.96,26.52,0.00,35.00,4.18,0.00,0.00,0.00,0.00,14.88,0.00,0.00,0.83,19.99,0.00,2.22,2.04,13.31,0.00,0.00,2.23
0,59.31,27.14,16.67,18.15,6.09,4.00,3.50,5.29,5.98,20.00,2.50,8.96,27.13,0.00,40.00,4.22,0.00,0.00,0.00,0.00,14.88,0.00,0.00,0.83,20.28,0.00,2.22,2.08,13.46,0.00,0.00,2.23
0,60.82,25.71,20.00,19.33,4.97,3.00,2.50,4.26,4.71,13.33,2.00,7.55,26.14,0.00,36.67,4.08,0.00,0.00,0.00,0.00,14.56,0.00,0.00,0.80,19.91,0.00,0.00,2.04,13.35,0.00,0.00,2.25
0,62.32,28.57,20.00,19.95,4.81,2.50,2.50,3.61,3.96,13.33,1.50,5.14,26.20,0.00,38.33,4.04,0.00,0.00,0.00,0.00,14.55,0.00,0.00,0.79,20.36,0.00,0.00,2.09,13.26,0.00,0.00,2.20
0,62.33,30.00,20.00,20.40,4.71,2.50,2.50,3.58,3.08,13.33,1.00,3.83,26.52,0.00,41.67,4.06,0.00,0.00,0.00,0.00,13.99,0.00,0.00,0.77,19.85,0.00,0.00,2.02,13.16,0.00,0.00,2.16
0,62.73,30.00,20.00,20.11,4.71,2.50,2.50,3.58,3.23,16.67,1.00,3.94,26.38,0.00,40.00,4.14,0.00,0.00,0.00,0.00,13.70,0.00,0.00,0.75,19.68,0.00,0.00,1.98,13.00,0.00,0.00,2.12
0,64.22,31.43,20.00,20.43,4.71,2.50,2.50,3.58,3.24,16.67,1.00,3.94,26.96,0.00,43.33,4.21,0.00,0.00,0.00,0.00,13.70,0.00,0.00,0.75,20.04,0.00,0.00,2.10,12.37,0.00,0.00,1.76
0,64.31,31.43,20.00,20.48,4.72,2.50,2.50,3.58,3.24,16.67,1.00,3.94,28.02,0.00,46.67,4.50,0.00,0.00,0.00,0.00,13.35,0.00,0.00,0.71,20.36,0.00,0.00,2.21,12.55,0.00,0.00,1.83
0,63.28,28.57,16.67,19.49,5.98,3.00,3.00,4.32,3.24,16.67,1.00,3.94,27.91,0.00,48.33,4.43,0.00,0.00,0.00,0.00,13.45,0.00,0.00,0.72,20.33,0.00,0.00,2.22,12.75,0.00,0.00,1.88
0,62.29,27.14,16.67,18.92,6.85,3.50,3.50,5.78,4.54,23.33,1.50,5.42,27.61,0.00,48.33,4.31,0.00,0.00,0.00,0.00,13.05,0.00,0.00,0.67,20.09,0.00,0.00,2.16,12.53,0.00,0.00,1.83
0,61.78,27.14,16.67,18.31,6.93,3.50,3.50,5.79,6.64,30.00,2.50,9.13,27.86,0.00,48.33,4.37,0.00,0.00,0.00,0.00,12.92,0.00,0.00,0.66,19.87,0.00,0.00,2.14,12.50,0.00,0.00,1.82
0,64.12,31.43,16.67,19.80,6.93,3.50,3.50,5.79,6.76,30.00,2.50,9.17,26.62,0.00,45.00,3.99,0.00,0.00,0.00,0.00,12.49,0.00,0.00,0.63,19.49,0.00,0.00,2.05,11.68,0.00,0.00,1.52
0,63.66,31.43,16.67,19.71,6.94,3.50,3.50,5.79,6.76,30.00,2.50,9.17,26.57,0.00,46.67,3.94,0.00,0.00,0.00,0.00,12.32,0.00,0.00,0.63,19.24,0.00,0.00,2.05,11.74,0.00,0.00,1.50
0,64.24,32.86,16.67,19.88,6.93,3.50,3.50,5.79,6.76,30.00,2.50,9.17,26.86,0.00,50.00,4.02,0.00,0.00,0.00,0.00,11.88,0.00,0.00,0.61,19.60,0.00,0.00,2.19,11.21,0.00,0.00,1.43
0,65.46,35.71,16.67,20.94,6.93,3.50,3.50,5.79,6.77,30.00,2.50,9.17,26.66,0.00,50.00,4.05,0.00,0.00,0.00,0.00,11.29,0.00,0.00,0.55,19.32,0.00,0.00,2.16,10.89,0.00,0.00,1.39
0,66.60,37.14,16.67,21.51,6.93,3.50,3.50,5.79,6.77,30.00,2.50,9.17,27.03,0.00,50.00,4.19,0.00,0.00,0.00,0.00,11.06,0.00,0.00,0.51,19.25,0.00,0.00,2.16,10.60,0.00,0.00,1.33
0,66.05,37.14,10.00,21.13,6.92,3.50,3.50,5.79,6.77,30.00,2.50,9.17,26.47,0.00,48.33,4.00,0.00,0.00,0.00,0.00,10.81,0.00,0.00,0.51,18.95,0.00,0.00,2.10,9.96,0.00,0.00,1.23
0,65.13,35.71,10.00,20.07,6.67,3.50,3.00,5.78,6.77,30.00,2.50,9.17,26.45,0.00,48.33,3.91,0.00,0.00,0.00,0.00,10.52,0.00,0.00,0.49,18.44,0.00,0.00,2.03,9.50,0.00,0.00,1.14
0,66.19,35.71,10.00,20.42,5.36,2.50,2.00,5.24,6.78,30.00,2.50,9.17,26.12,0.00,48.33,3.71,0.00,0.00,0.00,0.00,10.47,0.00,0.00,0.48,18.92,0.00,0.00,2.13,9.21,0.00,0.00,1.02
0,65.34,35.71,6.67,20.02,4.81,2.00,2.00,4.52,6.78,30.00,2.50,9.17,26.23,0.00,46.67,3.86,0.00,0.00,0.00,0.00,9.94,0.00,0.00,0.46,19.42,0.00,0.00,2.27,10.06,0.00,0.00,1.17
0,61.69,32.86,6.67,17.91,4.78,2.00,2.00,4.52,6.77,30.00,2.50,9.17,26.78,0.00,46.67,4.02,0.00,0.00,0.00,0.00,10.20,0.00,0.00,0.47,19.30,0.00,0.00,2.29,10.30,0.00,0.00,1.20
0,61.07,34.29,6.67,18.07,4.79,2.00,2.00,4.52,6.78,30.00,2.50,9.17,27.38,0.00,53.33,4.16,0.00,0.00,0.00,0.00,10.25,0.00,0.00,0.47,19.23,0.00,0.00,2.20,10.49,0.00,0.00,1.23
0,62.97,37.14,6.67,18.87,4.79,2.00,2.00,4.52,6.78,30.00,2.50,9.17,26.82,0.00,48.33,4.09,0.00,0.00,0.00,0.00,10.14,0.00,0.00,0.48,20.00,0.00,0.00,2.25,10.47,0.00,0.00,1.23
0,64.11,38.57,6.67,19.58,4.77,2.50,2.00,4.62,6.79,30.00,2.50,9.17,27.11,0.00,50.00,4.12,0.00,0.00,0.00,0.00,10.29,0.00,0.00,0.47,19.68,0.00,0.00,2.18,10.18,0.00,0.00,1.17
0,61.66,37.14,6.67,18.03,3.20,1.50,1.50,2.33,6.79,30.00,2.50,9.17,27.78,0.00,50.00,4.19,0.00,0.00,0.00,0.00,10.53,0.00,0.00,0.49,19.50,0.00,0.00,2.17,10.18,0.00,0.00,1.14
0,62.54,37.14,6.67,18.60,3.79,2.00,2.50,2.62,4.71,20.00,1.50,5.85,27.17,0.00,50.00,4.10,0.00,0.00,0.00,0.00,11.08,0.00,0.00,0.58,20.31,0.00,0.00,2.38,10.48,0.00,0.00,1.16
0,62.97,37.14,6.67,19.43,5.35,3.50,3.50,3.85,4.01,13.33,1.50,5.24,27.06,0.00,50.00,4.08,0.00,0.00,0.00,0.00,11.47,0.00,0.00,0.60,20.24,0.00,0.00,2.36,10.89,0.00,0.00,1.32
0,63.37,38.57,6.67,21.27,7.38,4.50,5.00,6.23,3.99,13.33,1.50,5.24,27.12,0.00,45.00,4.23,0.00,0.00,0.00,0.00,11.49,0.00,0.00,0.61,20.06,0.00,0.00,2.28,10.59,0.00,0.00,1.28
0,64.58,41.43,6.67,21.74,7.61,4.50,5.00,6.40,3.99,13.33,1.50,5.24,26.64,0.00,45.00,4.00,0.00,0.00,0.00,0.00,11.68,0.00,0.00,0.63,20.46,0.00,0.00,2.26,10.27,0.00,0.00,1.16
0,66.04,42.86,6.67,22.71,7.62,4.50,5.00,6.40,3.99,13.33,1.50,5.24,26.01,0.00,43.33,3.87,0.00,0.00,0.00,0.00,11.48,0.00,0.00,0.61,20.24,0.00,0.00,2.22,10.69,0.00,0.00,1.19
0,64.24,38.57,6.67,22.27,5.60,3.50,4.00,4.23,2.98,10.00,1.00,4.03,26.13,0.00,43.33,3.83,0.00,0.00,0.00,0.00,11.88,0.00,0.00,0.63,20.40,0.00,0.00,2.24,11.05,0.00,0.00,1.24
0,64.95,38.57,6.67,22.54,5.41,3.50,4.00,4.20,1.18,3.33,0.00,0.36,25.70,0.00,41.67,3.87,0.00,0.00,0.00,0.00,11.85,0.00,0.00,0.64,20.66,0.00,0.00,2.31,11.27,0.00,0.00,1.26
0,62.84,35.71,6.67,21.43,5.42,3.50,4.00,4.20,3.40,13.33,1.50,4.05,25.60,0.00,41.67,3.96,0.00,0.00,0.00,0.00,12.29,0.00,0.00,0.65,20.70,0.00,0.00,2.31,11.40,0.00,0.00,1.27
0,62.42,34.29,6.67,21.15,5.41,3.50,4.00,4.20,4.10,16.67,1.50,5.49,25.86,0.00,43.33,4.00,0.00,0.00,0.00,0.00,12.44,0.00,0.00,0.67,20.92,0.00,0.00,2.32,11.33,0.00,0.00,1.26
0,62.81,32.86,6.67,22.18,5.40,3.50,4.00,4.20,4.17,16.67,1.50,5.51,26.61,0.00,45.00,4.05,0.00,0.00,0.00,0.00,12.70,0.00,0.00,0.68,21.00,0.00,0.00,2.24,11.61,0.00,0.00,1.27
0,64.25,35.71,10.00,22.71,5.40,3.50,4.00,4.20,4.17,16.67,1.50,5.51,26.68,0.00,46.67,4.03,0.00,0.00,0.00,0.00,13.16,0.00,0.00,0.72,20.89,0.00,0.00,2.21,12.33,0.00,0.00,1.45
0,63.00,32.86,10.00,22.25,5.81,3.50,4.00,4.20,4.17,16.67,1.50,5.51,27.16,0.00,48.33,4.19,0.00,0.00,0.00,0.00,13.32,0.00,0.00,0.75,21.03,0.00,0.00,2.22,12.45,0.00,0.00,1.47
0,61.12,28.57,10.00,20.91,8.63,5.00,6.00,7.20,5.12,23.33,1.50,6.32,26.91,0.00,48.33,4.11,0.00,0.00,0.00,0.00,13.33,0.00,0.00,0.75,21.07,0.00,0.00,2.25,13.02,0.00,0.00,1.55
0,63.13,31.43,10.00,21.95,9.50,5.50,6.50,8.84,7.12,30.00,2.50,9.75,27.47,0.00,51.67,4.32,0.00,0.00,0.00,0.00,13.11,0.00,0.00,0.71,21.22,0.00,0.00,2.23,13.36,0.00,0.00,1.67
0,64.34,34.29,10.00,22.55,9.54,5.50,6.50,8.84,7.37,30.00,2.50,10.01,28.48,0.00,56.67,4.53,0.00,0.00,0.00,0.00,13.34,0.00,0.00,0.72,20.85,0.00,0.00,2.14,13.72,0.00,0.00,1.73
0,61.53,31.43,6.67,21.40,9.55,5.50,6.50,8.84,7.38,30.00,2.50,10.01,28.16,0.00,56.67,4.40,0.00,0.00,0.00,0.00,13.64,0.00,0.00,0.76,20.38,0.00,0.00,2.01,13.11,0.00,0.00,1.59
0,61.93,31.43,6.67,21.47,9.54,5.50,6.50,8.84,7.38,30.00,2.50,10.01,28.44,0.00,58.33,4.49,0.00,0.00,0.00,0.00,13.42,0.00,0.00,0.78,20.25,0.00,0.00,1.99,13.16,0.00,0.00,1.64
0,61.48,31.43,6.67,21.16,9.53,5.50,6.50,8.84,7.38,30.00,2.50,10.01,28.15,0.00,55.00,4.32,0.00,0.00,0.00,0.00,13.96,0.00,0.00,0.84,20.55,0.00,0.00,2.04,13.13,0.00,0.00,1.73
0,62.26,32.86,6.67,20.97,9.53,5.50,6.50,8.84,7.38,30.00,2.50,10.01,28.22,0.00,55.00,4.46,0.00,0.00,0.00,0.00,14.28,0.00,0.00,0.89,20.66,0.00,0.00,2.16,13.19,0.00,0.00,1.75
0,60.30,30.00,3.33,19.70,9.14,5.00,6.00,8.75,7.38,30.00,2.50,10.01,28.68,0.00,53.33,4.61,0.00,0.00,0.00,0.00,14.41,0.00,0.00,0.90,20.90,0.00,0.00,2.29,13.38,0.00,0.00,1.78
0,62.44,31.43,3.33,20.78,9.06,5.00,6.00,8.74,7.38,30.00,2.50,10.01,29.02,0.00,58.33,4.66,0.00,0.00,0.00,0.00,14.73,0.00,0.00,0.94,21.09,0.00,0.00,2.29,14.23,0.00,0.00,2.07
0,62.91,32.86,3.33,20.64,8.79,5.00,5.50,8.73,7.38,30.00,2.50,10.01,28.69,0.00,53.33,4.61,0.00,0.00,0.00,0.00,14.50,0.00,0.00,0.93,20.88,0.00,0.00,2.15,14.52,0.00,0.00,2.18
0,61.91,31.43,3.33,19.57,7.22,3.50,4.00,7.93,7.36,30.00,2.50,10.01,28.31,0.00,51.67,4.46,0.00,0.00,0.00,0.00,14.21,0.00,0.00,0.90,20.68,0.00,0.00,2.15,14.43,0.00,0.00,2.09
0,59.59,28.57,3.33,17.48,5.23,2.50,2.50,5.27,7.36,30.00,2.50,10.01,28.51,0.00,53.33,4.31,0.00,0.00,0.00,0.00,14.52,0.00,0.00,0.94,20.77,0.00,0.00,2.18,14.72,0.00,0.00,2.12
0,61.62,28.57,6.67,17.92,4.54,2.00,2.50,4.65,7.37,30.00,2.50,10.01,28.52,0.00,51.67,4.43,0.00,0.00,0.00,0.00,14.85,0.00,0.00,0.99,20.42,0.00,0.00,2.22,14.60,0.00,0.00,2.12
0,59.86,27.14,6.67,17.22,4.52,2.00,2.50,4.65,7.37,30.00,2.50,10.01,29.18,0.00,53.33,4.61,0.00,0.00,0.00,0.00,15.24,0.00,0.00,1.04,20.42,0.00,0.00,2.25,14.45,0.00,0.00,2.11
0,60.17,27.14,6.67,17.31,4.52,2.00,2.50,4.65,7.37,30.00,2.50,10.01,29.53,0.00,51.67,4.68,0.00,0.00,0.00,0.00,15.28,0.00,0.00,1.10,20.31,0.00,0.00,2.21,14.20,0.00,0.00,2.18
0,58.95,25.71,6.67,16.98,4.62,2.00,2.50,4.65,7.37,30.00,2.50,10.01,29.33,0.00,53.33,4.58,0.00,0.00,0.00,0.00,15.31,0.00,0.00,1.13,20.55,0.00,0.00,2.19,14.11,0.00,0.00,2.17
0,59.23,25.71,6.67,16.66,5.61,3.00,3.50,4.97,5.33,20.00,1.50,6.57,29.50,0.00,53.33,4.58,0.00,0.00,0.00,0.00,15.14,0.00,0.00,1.15,20.47,0.00,0.00,2.23,14.95,0.00,0.00,2.47
0,60.61,30.00,6.67,17.43,7.43,4.00,5.50,7.14,3.86,13.33,1.00,4.57,29.01,0.00,51.67,4.39,0.00,0.00,0.00,0.00,14.93,0.00,0.00,1.14,19.74,0.00,0.00,2.11,15.13,0.00,0.00,2.58
0,58.25,28.57,6.67,15.54,8.11,4.50,5.50,7.74,3.69,13.33,1.00,4.52,28.65,0.00,48.33,4.40,0.00,0.00,0.00,0.00,15.13,0.00,0.00,1.20,19.73,0.00,0.00,2.15,15.03,0.00,0.00,2.58
0,57.60,27.14,6.67,15.08,10.05,5.50,6.50,9.90,3.70,13.33,1.00,4.52,27.79,0.00,45.00,4.24,0.00,0.00,0.00,0.00,15.51,0.00,0.00,1.23,19.67,0.00,0.00,2.11,14.95,0.00,0.00,2.54
0,56.28,24.29,3.33,14.59,10.29,5.50,6.50,10.06,3.70,13.33,1.00,4.52,27.87,0.00,50.00,4.14,0.00,0.00,0.00,0.00,15.36,0.00,0.00,1.24,19.77,0.00,0.00,2.12,15.44,0.00,0.00,2.69
0,55.73,24.29,3.33,14.57,8.26,4.50,5.00,7.79,3.03,10.00,1.00,4.20,27.64,0.00,48.33,4.10,0.00,0.00,0.00,0.00,15.63,0.00,0.00,1.28,19.74,0.00,0.00,2.10,15.46,0.00,0.00,2.71
0,55.65,22.86,3.33,14.78,6.23,3.50,4.00,5.43,1.20,3.33,0.00,0.92,27.32,0.00,46.67,3.93,0.00,0.00,0.00,0.00,15.66,0.00,0.00,1.29,19.29,0.00,0.00,2.01,15.29,0.00,0.00,2.65
0,53.77,21.43,3.33,13.79,6.19,3.50,4.00,5.42,2.72,6.67,1.00,3.47,26.71,0.00,45.00,3.75,0.00,0.00,0.00,0.00,15.83,0.00,0.00,1.34,19.26,0.00,0.00,2.00,15.09,0.00,0.00,2.67
0,52.24,20.00,3.33,13.39,6.19,3.50,4.00,5.42,4.56,16.67,1.50,5.44,26.88,0.00,43.33,3.84,0.00,0.00,0.00,0.00,15.54,0.00,0.00,1.30,19.33,0.00,0.00,2.00,15.31,0.00,0.00,2.69
0,53.07,20.00,3.33,13.34,6.19,3.50,4.00,5.42,5.11,20.00,1.50,6.50,26.55,0.00,43.33,3.76,0.00,0.00,0.00,0.00,15.41,0.00,0.00,1.28,19.00,0.00,0.00,1.96,15.70,0.00,0.00,2.74
0,53.54,18.57,3.33,13.72,6.21,3.50,4.00,5.42,5.12,20.00,1.50,6.50,26.58,0.00,41.67,3.70,0.00,0.00,0.00,0.00,14.89,0.00,0.00,1.21,18.77,0.00,0.00,1.94,15.41,0.00,0.00,2.59
0,52.30,15.71,3.33,13.34,6.21,3.50,4.00,5.42,5.11,20.00,1.50,6.50,26.81,0.00,41.67,3.67,0.00,0.00,0.00,0.00,14.44,0.00,0.00,1.15,18.51,0.00,0.00,1.81,15.55,0.00,0.00,2.61
0,51.76,15.71,3.33,12.94,8.58,4.50,5.50,7.71,5.66,23.33,1.50,6.87,26.47,0.00,43.33,3.51,0.00,0.00,0.00,0.00,14.29,0.00,0.00,1.14,18.47,0.00,0.00,1.70,15.64,0.00,0.00,2.64
0,49.84,14.29,3.33,11.97,10.40,5.50,6.50,10.19,7.43,30.00,2.00,9.28,26.07,0.00,41.67,3.32,0.00,0.00,0.00,0.00,13.71,0.00,0.00,1.07,17.82,0.00,0.00,1.56,15.11,0.00,0.00,2.52
0,48.34,11.43,3.33,11.07,10.50,5.50,6.50,10.22,9.48,36.67,3.00,12.95,26.01,0.00,43.33,3.32,0.00,0.00,0.00,0.00,13.70,0.00,0.00,1.06,17.98,0.00,0.00,1.61,14.43,0.00,0.00,2.29
0,47.73,11.43,3.33,10.89,10.51,5.50,6.50,10.22,9.72,36.67,3.00,13.22,26.36,0.00,45.00,3.52,0.00,0.00,0.00,0.00,13.45,0.00,0.00,1.02,17.59,0.00,0.00,1.58,13.92,0.00,0.00,2.17
0,49.18,11.43,3.33,11.12,10.51,5.50,6.50,10.22,9.72,36.67,3.00,13.22,26.41,0.00,43.33,3.47,0.00,0.00,0.00,0.00,12.73,0.00,0.00,0.93,17.83,0.00,0.00,1.59,14.19,0.00,0.00,2.23
0,46.58,10.00,0.00,10.59,10.51,5.50,6.50,10.22,9.71,36.67,3.00,13.22,26.13,0.00,45.00,3.35,0.00,0.00,0.00,0.00,12.82,0.00,0.00,0.93,18.18,0.00,0.00,1.54,14.28,0.00,0.00,2.30
0,47.57,10.00,0.00,10.73,10.51,5.50,6.50,10.22,9.72,36.67,3.00,13.22,26.49,0.00,45.00,3.46,0.00,0.00,0.00,0.00,12.63,0.00,0.00,0.92,18.36,0.00,0.00,1.51,14.55,0.00,0.00,2.39
0,48.04,11.43,0.00,10.83,10.51,5.50,6.50,10.22,9.72,36.67,3.00,13.22,26.05,0.00,45.00,3.24,0.00,0.00,0.00,0.00,12.50,0.00,0.00,0.88,18.45,0.00,0.00,1.58,14.64,0.00,0.00,2.39
0,48.69,11.43,0.00,10.70,10.51,5.50,6.50,10.22,9.71,36.67,3.00,13.22,26.65,0.00,48.33,3.45,0.00,0.00,0.00,0.00,12.49,0.00,0.00,0.87,18.28,0.00,0.00,1.57,14.67,0.00,0.00,2.38
0,48.05,12.86,0.00,10.62,10.03,5.00,6.00,10.09,9.70,36.67,3.00,13.22,26.76,0.00,48.33,3.56,0.00,0.00,0.00,0.00,12.76,0.00,0.00,0.87,17.92,0.00,0.00,1.50,14.38,0.00,0.00,2.24
0,48.07,11.43,0.00,10.64,8.67,4.00,4.00,9.52,9.70,36.67,3.00,13.22,27.53,0.00,53.33,3.65,0.00,0.00,0.00,0.00,12.70,0.00,0.00,0.89,18.01,0.00,0.00,1.50,14.32,0.00,0.00,2.16
0,49.12,12.86,0.00,11.01,6.93,3.00,3.50,7.14,9.67,36.67,3.00,13.22,27.40,0.00,51.67,3.62,0.00,0.00,0.00,0.00,12.59,0.00,0.00,0.85,18.46,0.00,0.00,1.51,14.50,0.00,0.00,2.21
0,50.16,12.86,0.00,11.05,5.42,2.50,2.50,5.38,9.67,36.67,3.00,13.22,27.70,0.00,53.33,3.57,0.00,0.00,0.00,0.00,12.36,0.00,0.00,0.79,18.96,0.00,0.00,1.56,14.49,0.00,0.00,2.28
0,49.99,12.86,0.00,10.92,4.75,2.00,2.50,4.81,9.67,36.67,3.00,13.22,27.18,0.00,48.33,3.48,0.00,0.00,0.00,0.00,12.34,0.00,0.00,0.78,18.35,0.00,0.00,1.48,14.47,0.00,0.00,2.20
0,51.87,15.71,0.00,12.03,4.90,2.00,2.50,4.83,9.67,36.67,3.00,13.22,27.22,0.00,48.33,3.49,0.00,0.00,0.00,0.00,12.32,0.00,0.00,0.78,18.42,0.00,0.00,1.48,14.17,0.00,0.00,2.12
0,52.17,17.14,0.00,12.05,5.30,2.50,3.00,4.93,9.68,36.67,3.00,13.22,28.46,0.00,51.67,4.08,0.00,0.00,0.00,0.00,12.56,0.00,0.00,0.77,19.22,0.00,0.00,1.74,14.15,0.00,0.00,2.08
0,53.22,18.57,0.00,12.48,6.10,3.50,4.00,5.29,7.76,30.00,2.00,9.99,28.85,0.00,50.00,4.37,0.00,0.00,0.00,0.00,12.45,0.00,0.00,0.73,19.41,0.00,0.00,1.79,13.94,0.00,0.00,2.04
0,54.12,18.57,0.00,12.75,7.46,4.50,4.50,5.90,6.40,23.33,2.00,8.27,28.83,0.00,51.67,4.40,0.00,0.00,0.00,0.00,12.71,0.00,0.00,0.74,20.03,0.00,0.00,1.84,14.16,0.00,0.00,2.14
0,53.08,18.57,0.00,12.65,9.48,5.50,6.50,8.68,5.07,16.67,1.50,6.73,29.24,0.00,51.67,4.48,0.00,0.00,0.00,0.00,12.80,0.00,0.00,0.73,20.13,0.00,0.00,1.88,13.79,0.00,0.00,2.12
0,53.42,20.00,0.00,12.38,10.15,6.00,6.50,9.31,5.05,16.67,1.50,6.72,29.43,0.00,51.67,4.53,0.00,0.00,0.00,0.00,13.07,0.00,0.00,0.77,19.70,0.00,0.00,1.78,14.33,0.00,0.00,2.20
0,52.92,20.00,0.00,12.35,10.17,6.00,6.50,9.31,5.06,16.67,1.50,6.72,28.63,0.00,48.33,4.46,0.00,0.00,0.00,0.00,13.08,0.00,0.00,0.76,19.84,0.00,0.00,1.80,13.89,0.00,0.00,2.19
0,52.98,20.00,0.00,12.41,8.25,5.00,5.50,7.17,4.90,16.67,1.50,6.72,29.02,0.00,51.67,4.59,0.00,0.00,0.00,0.00,13.54,0.00,0.00,0.78,20.34,0.00,2.22,1.94,13.75,0.00,0.00,2.11
0,53.33,20.00,0.00,12.78,6.12,4.00,4.00,4.57,3.23,10.00,1.00,5.40,29.18,0.00,50.00,4.66,0.00,0.00,0.00,0.00,13.56,0.00,0.00,0.79,20.64,0.00,2.22,2.01,14.17,0.00,0.00,2.17
0,53.22,20.00,0.00,12.85,5.88,4.00,4.00,4.51,1.16,3.33,0.00,0.94,29.76,0.00,50.00,4.90,0.00,0.00,0.00,0.00,13.47,0.00,0.00,0.80,20.19,0.00,2.22,1.94,14.62,0.00,0.00,2.37
0,53.47,20.00,0.00,12.88,5.88,4.00,4.00,4.51,2.03,6.67,0.00,1.19,29.47,0.00,50.00,4.82,0.00,0.00,0.00,0.00,13.62,0.00,0.00,0.83,19.86,0.00,2.22,1.92,15.13,0.00,0.00,2.64
0,54.61,21.43,0.00,13.07,5.87,4.00,4.00,4.51,4.00,16.67,1.00,4.89,29.39,0.00,50.00,4.77,0.00,0.00,0.00,0.00,13.86,0.00,0.00,0.85,19.41,0.00,2.22,1.87,15.30,0.00,0.00,2.70
0,56.09,22.86,3.33,13.83,5.88,4.00,4.00,4.51,4.32,16.67,1.00,5.21,29.37,0.00,48.33,4.76,0.00,0.00,0.00,0.00,13.57,0.00,0.00,0.86,18.39,0.00,2.22,1.73,14.96,0.00,0.00,2.66
0,55.81,24.29,6.67,13.74,5.88,4.00,4.00,4.51,4.32,16.67,1.00,5.21,28.86,0.00,46.67,4.69,0.00,0.00,0.00,0.00,13.43,0.00,0.00,0.81,18.58,0.00,2.22,1.90,14.88,0.00,0.00,2.51
0,54.47,21.43,6.67,13.34,5.88,4.00,4.00,4.51,4.32,16.67,1.00,5.21,29.34,0.00,48.33,4.85,0.00,0.00,0.00,0.00,13.00,0.00,0.00,0.76,18.33,0.00,2.22,1.83,15.00,0.00,0.00,2.72
0,53.99,21.43,6.67,13.17,7.12,5.00,5.00,5.31,5.14,20.00,1.00,6.01,28.03,0.00,43.33,4.64,0.00,0.00,0.00,0.00,13.02,0.00,0.00,0.74,18.75,0.00,2.22,1.89,14.87,0.00,0.00,2.74
0,52.81,20.00,6.67,12.80,7.60,5.50,6.00,5.50,7.31,30.00,2.00,9.53,27.46,0.00,41.67,4.39,0.00,0.00,0.00,0.00,12.77,0.00,0.00,0.71,18.93,0.00,2.22,1.88,14.37,0.00,0.00,2.63
0,52.82,18.57,6.67,12.90,7.61,5.50,6.00,5.50,7.60,30.00,2.00,9.88,27.27,0.00,36.67,4.46,0.00,0.00,0.00,0.00,12.84,0.00,0.00,0.69,18.93,0.00,2.22,1.88,15.08,0.00,0.00,2.83
0,55.46,22.86,6.67,13.64,7.61,5.50,6.00,5.50,7.62,30.00,2.00,9.88,27.46,0.00,40.00,4.48,0.00,0.00,0.00,0.00,13.07,0.00,0.00,0.72,19.00,0.00,2.22,1.87,14.99,0.00,0.00,2.77
0,54.48,21.43,6.67,12.77,7.60,5.50,6.00,5.50,7.63,30.00,2.00,9.88,27.05,0.00,38.33,4.42,0.00,0.00,0.00,0.00,13.37,0.00,0.00,0.76,19.29,0.00,2.22,1.99,14.53,0.00,0.00,2.62
0,56.77,24.29,6.67,13.34,7.60,5.50,6.00,5.50,7.63,30.00,2.00,9.88,26.66,0.00,38.33,4.36,0.00,0.00,0.00,0.00,13.51,0.00,0.00,0.76,20.21,0.00,2.22,2.09,14.60,0.00,0.00,2.60
0,55.42,21.43,6.67,12.79,7.48,5.50,6.00,5.48,7.62,30.00,2.00,9.88,28.63,0.00,41.67,4.72,0.00,0.00,0.00,0.00,13.91,0.00,0.00,0.80,22.59,0.00,11.11,2.41,14.64,0.00,0.00,2.63
0,55.90,22.86,6.67,12.77,7.08,5.00,5.50,5.39,7.62,30.00,2.00,9.88,30.01,0.00,43.33,5.68,0.00,0.00,0.00,0.00,14.83,0.00,0.00,0.96,26.29,2.22,24.44,3.72,15.32,0.00,0.00,2.87
0,54.27,20.00,6.67,12.30,6.31,4.00,4.50,5.04,7.61,30.00,2.00,9.88,32.83,10.00,48.33,8.67,1.01,0.50,5.00,2.99,15.98,0.00,0.00,1.27,37.66,11.11,37.78,11.02,17.44,0.00,0.00,3.42
1,62.09,24.29,13.33,20.60,5.88,3.50,4.50,4.91,7.60,30.00,2.00,9.88,39.14,20.00,50.00,16.93,2.29,2.00,7.50,5.16,20.62,13.33,10.00,2.83,46.79,17.78,51.11,19.31,18.80,3.33,0.00,4.13
1,66.12,28.57,13.33,23.44,3.93,2.50,2.50,3.44,7.61,30.00,2.00,9.88,42.80,25.00,55.00,20.14,3.74,3.00,12.50,10.90,22.19,13.33,10.00,3.34,56.57,26.67,57.78,27.00,20.80,6.67,0.00,5.14
1,70.03,34.29,16.67,25.36,2.17,1.50,2.00,1.00,7.61,30.00,2.00,9.88,46.77,30.00,61.67,22.54,4.30,3.50,12.50,11.99,24.25,16.67,10.00,4.10,68.05,35.56,64.44,40.94,23.79,13.33,0.00,7.33
1,72.49,35.71,23.33,26.92,2.13,1.50,2.00,0.99,7.61,30.00,2.00,9.88,48.65,30.00,68.33,23.25,5.42,5.00,17.50,13.72,26.28,23.33,10.00,4.86,78.93,46.67,75.56,50.68,24.46,13.33,0.00,7.57
1,77.76,38.57,26.67,31.93,2.13,1.50,2.00,0.99,7.63,30.00,2.00,9.89,52.69,40.00,70.00,25.47,6.32,6.00,20.00,15.37,27.61,23.33,10.00,4.98,83.36,51.11,84.44,54.47,25.91,13.33,0.00,8.04
1,85.97,47.14,40.00,35.85,3.20,2.50,3.00,1.66,7.64,30.00,2.00,9.89,55.50,40.00,80.00,26.58,7.54,6.50,22.50,19.03,32.20,33.33,10.00,6.39,86.95,53.33,88.89,55.78,28.26,16.67,0.00,9.67
1,92.34,51.43,46.67,41.11,5.27,3.50,4.50,4.08,7.64,30.00,2.00,9.89,60.76,55.00,83.33,31.03,8.98,7.50,27.50,21.81,35.89,43.33,10.00,7.89,95.80,57.78,104.44,66.26,31.08,20.00,8.33,13.60
1,98.84,57.14,60.00,45.99,5.41,3.50,4.50,4.11,6.52,23.33,2.00,8.79,68.70,65.00,85.00,42.65,11.24,9.50,40.00,28.53,39.82,50.00,10.00,9.31,106.88,66.67,113.33,76.52,32.53,23.33,8.33,14.18
1,101.32,60.00,60.00,49.29,5.41,3.50,4.50,4.11,4.43,16.67,1.00,5.13,73.12,75.00,88.33,48.87,12.68,10.50,42.50,34.00,41.73,53.33,10.00,10.47,113.60,71.11,124.44,81.94,33.57,23.33,8.33,14.63
1,104.77,61.43,66.67,52.17,5.41,3.50,4.50,4.11,3.80,13.33,1.00,4.68,75.40,75.00,91.67,49.91,14.15,12.00,45.00,36.88,45.96,56.67,15.00,11.77,118.98,75.56,135.56,83.50,36.90,30.00,16.67,16.21
1,110.88,67.14,80.00,55.51,5.42,3.50,4.50,4.11,3.77,13.33,1.00,4.68,78.70,75.00,98.33,51.34,15.56,13.00,47.50,41.57,49.09,63.33,20.00,13.60,120.95,75.56,140.00,84.76,38.41,36.67,16.67,16.84
1,120.85,74.29,86.67,62.34,5.43,3.50,4.50,4.11,5.26,16.67,2.00,7.30,85.14,90.00,108.33,53.87,16.84,14.50,55.00,44.93,54.57,70.00,30.00,15.99,133.08,86.67,151.11,92.58,38.77,36.67,16.67,17.10
1,131.20,78.57,96.67,73.46,4.30,2.50,3.50,3.36,5.71,20.00,2.00,8.15,87.80,95.00,111.67,55.48,18.57,16.00,57.50,51.27,57.57,76.67,30.00,16.63,138.17,88.89,155.56,98.11,41.03,40.00,16.67,17.98
1,137.88,84.29,100.00,80.50,3.74,2.00,2.50,3.12,3.56,10.00,1.00,5.92,90.49,95.00,115.00,56.65,20.30,18.00,65.00,54.28,62.77,90.00,30.00,18.57,145.55,97.78,166.67,104.91,41.38,40.00,16.67,18.33
1,146.33,90.00,106.67,86.38,3.70,2.00,2.50,3.12,2.89,6.67,1.00,3.54,93.72,100.00,121.67,59.65,22.70,21.50,80.00,58.74,66.67,96.67,35.00,19.69,152.85,102.22,173.33,111.34,43.82,46.67,16.67,19.45
1,149.96,90.00,116.67,90.12,4.33,2.50,3.00,3.30,4.79,13.33,2.00,6.70,101.26,110.00,125.00,66.17,24.75,24.00,90.00,62.76,69.27,103.33,35.00,20.18,163.18,111.11,182.22,118.64,46.47,53.33,16.67,21.39
1,154.71,91.43,123.33,94.49,4.73,3.00,3.50,3.65,5.06,13.33,2.00,7.05,101.94,110.00,126.67,66.68,25.38,25.00,90.00,63.38,73.73,113.33,45.00,22.29,168.44,115.56,191.11,125.67,48.42,60.00,25.00,23.02
1,158.11,95.71,126.67,99.46,4.74,3.00,3.50,3.65,5.06,13.33,2.00,7.06,105.40,115.00,128.33,69.72,27.57,27.00,95.00,69.42,78.14,123.33,45.00,23.75,175.14,122.22,200.00,131.18,52.05,70.00,33.33,26.65
1,160.56,95.71,126.67,103.30,4.74,3.00,3.50,3.65,5.07,13.33,2.00,7.06,107.97,120.00,131.67,71.03,28.87,28.00,97.50,73.38,83.59,136.67,50.00,26.48,180.98,128.89,200.00,139.29,53.20,70.00,33.33,27.15
1,160.02,94.29,130.00,104.40,4.74,3.00,3.50,3.65,5.07,13.33,2.00,7.06,111.15,135.00,131.67,73.54,30.51,29.00,105.00,78.99,86.77,143.33,55.00,27.86,181.17,128.89,193.33,143.78,55.26,76.67,41.67,29.01
1,165.42,100.00,140.00,106.57,4.74,3.00,3.50,3.65,5.07,13.33,2.00,7.06,114.18,145.00,131.67,77.15,31.52,30.50,107.50,81.76,87.79,146.67,55.00,28.46,177.47,126.67,188.89,141.11,57.05,86.67,41.67,31.14
1,165.99,102.86,146.67,104.46,4.74,3.00,3.50,3.65,5.07,13.33,2.00,7.06,112.04,145.00,135.00,69.42,32.13,31.50,110.00,82.18,85.57,140.00,45.00,27.63,171.27,122.22,184.44,135.64,57.41,86.67,41.67,31.96
1,167.84,104.29,156.67,104.99,4.74,3.00,3.50,3.65,5.07,13.33,2.00,7.06,114.20,145.00,135.00,72.95,32.78,32.50,115.00,83.90,89.45,150.00,50.00,30.04,167.79,117.78,182.22,133.54,58.66,86.67,50.00,34.13
1,173.30,104.29,163.33,108.88,6.15,4.00,4.50,4.77,5.06,13.33,2.00,7.06,117.33,155.00,138.33,75.58,33.65,32.50,120.00,87.77,89.29,150.00,50.00,30.10,159.32,111.11,182.22,120.18,57.00,80.00,50.00,32.08
1,174.88,102.86,160.00,112.68,6.24,4.00,4.50,4.78,5.06,13.33,2.00,7.05,119.86,170.00,136.67,76.90,35.13,33.00,125.00,94.08,92.36,150.00,55.00,32.94,155.78,108.89,180.00,117.95,58.81,90.00,66.67,33.45
1,174.79,104.29,160.00,111.23,6.24,4.00,4.50,4.78,5.05,13.33,2.00,7.05,122.13,175.00,135.00,78.38,36.95,34.50,132.50,101.09,95.55,156.67,60.00,34.52,152.96,108.89,180.00,112.24,58.07,90.00,66.67,33.09
1,171.43,101.43,153.33,108.47,5.42,3.50,3.50,4.24,5.02,13.33,2.00,7.05,121.39,170.00,130.00,80.73,36.56,34.00,130.00,100.77,97.88,160.00,65.00,37.47,152.84,108.89,180.00,111.87,58.41,93.33,66.67,32.99
1,172.44,98.57,153.33,112.19,3.25,2.00,2.00,1.91,5.02,13.33,2.00,7.05,119.47,165.00,126.67,79.99,37.27,34.50,130.00,103.46,97.43,160.00,70.00,36.64,146.40,104.44,171.11,105.02,56.38,90.00,58.33,30.60
1,167.31,95.71,136.67,110.98,2.97,2.00,2.00,1.67,6.53,20.00,3.00,9.69,116.45,160.00,126.67,73.22,37.42,34.00,125.00,108.36,96.95,156.67,75.00,36.20,141.66,104.44,171.11,97.06,56.47,86.67,58.33,30.44
1,169.74,97.14,146.67,110.34,2.97,2.00,2.00,1.67,7.19,23.33,3.00,10.54,111.21,145.00,130.00,65.75,36.12,33.00,120.00,101.30,97.82,156.67,75.00,35.95,137.75,106.67,168.89,91.79,56.23,90.00,58.33,30.26
1,169.29,101.43,140.00,108.44,2.97,2.00,2.00,1.67,7.21,23.33,3.00,10.54,109.89,145.00,128.33,65.00,35.59,32.00,120.00,99.72,96.87,156.67,75.00,35.65,136.71,104.44,168.89,91.31,54.03,83.33,50.00,29.64
1,166.90,95.71,130.00,108.86,2.97,2.00,2.00,1.67,7.36,23.33,3.00,10.57,109.67,145.00,128.33,64.49,34.89,31.50,120.00,95.90,93.02,146.67,65.00,33.49,136.49,106.67,168.89,90.93,55.11,83.33,58.33,31.11
1,167.54,94.29,130.00,111.82,3.78,2.50,2.50,1.98,8.87,30.00,3.50,13.73,109.29,150.00,125.00,65.62,35.39,31.50,117.50,98.50,92.82,153.33,65.00,33.60,137.62,106.67,168.89,94.23,56.40,90.00,58.33,31.63
1,163.52,92.86,126.67,107.47,4.31,3.00,3.00,2.61,7.42,23.33,3.00,10.62,106.94,145.00,120.00,65.24,34.57,30.50,115.00,96.98,89.96,143.33,60.00,31.57,132.15,104.44,166.67,89.07,57.29,93.33,58.33,32.91
1,159.43,90.00,126.67,103.58,4.33,3.00,3.00,2.61,7.39,23.33,3.00,10.60,108.81,155.00,120.00,67.47,33.85,29.00,107.50,95.68,88.33,133.33,60.00,30.65,127.53,97.78,166.67,83.21,56.55,90.00,58.33,32.58
1,161.03,90.00,133.33,104.42,4.33,3.00,3.00,2.61,7.33,23.33,3.00,10.60,108.72,160.00,118.33,66.21,33.40,27.00,102.50,95.96,87.76,136.67,55.00,30.41,127.97,97.78,166.67,83.44,55.88,83.33,58.33,32.05
1,158.00,87.14,123.33,104.14,4.32,3.00,3.00,2.61,5.84,20.00,2.00,9.33,104.11,150.00,116.67,61.63,32.55,25.50,92.50,95.64,86.82,133.33,55.00,30.26,122.90,95.56,166.67,77.70,56.64,90.00,66.67,32.94
1,156.41,85.71,123.33,103.49,3.33,2.00,2.00,2.09,5.02,16.67,2.00,7.04,106.21,160.00,120.00,63.59,33.22,26.00,95.00,100.16,84.79,130.00,45.00,29.45,119.90,93.33,166.67,71.90,54.72,80.00,58.33,31.03
1,155.21,88.57,123.33,99.24,3.30,2.00,2.00,2.09,4.99,16.67,2.00,7.03,104.72,155.00,123.33,61.64,31.97,24.00,90.00,97.15,84.04,126.67,45.00,28.54,114.22,88.89,160.00,66.98,52.81,73.33,50.00,28.20
1,158.72,92.86,130.00,98.88,3.45,2.00,2.00,2.10,4.99,16.67,2.00,7.03,105.08,155.00,125.00,61.90,31.46,24.00,92.50,93.23,84.57,123.33,45.00,30.56,114.16,86.67,157.78,65.81,55.13,80.00,58.33,30.50
1,161.08,94.29,130.00,100.07,5.24,3.00,3.00,3.87,4.99,16.67,2.00,7.03,102.51,140.00,121.67,59.33,29.61,22.50,85.00,87.59,80.96,113.33,40.00,27.62,107.99,82.22,157.78,58.10,53.72,73.33,50.00,28.96
1,164.64,97.14,133.33,103.09,5.34,3.00,3.00,3.90,4.99,16.67,2.00,7.03,98.68,125.00,118.33,55.85,28.22,21.00,80.00,85.14,82.40,120.00,40.00,27.85,104.75,80.00,153.33,53.47,51.08,63.33,50.00,26.84
1,167.24,97.14,136.67,105.24,5.34,3.00,3.00,3.90,5.00,16.67,2.00,7.03,96.12,115.00,120.00,54.43,27.19,20.00,77.50,83.73,83.20,120.00,45.00,28.06,103.32,80.00,148.89,54.33,50.22,66.67,50.00,25.92
1,164.51,92.86,130.00,105.09,5.35,3.00,3.00,3.90,4.99,16.67,2.00,7.03,96.88,125.00,120.00,52.71,25.07,17.50,67.50,75.51,80.98,110.00,45.00,28.51,101.08,77.78,153.33,50.62,49.09,70.00,41.67,24.14
1,159.27,91.43,126.67,101.08,4.04,2.00,2.00,2.88,4.99,16.67,2.00,7.03,94.80,130.00,115.00,51.36,23.88,16.50,60.00,70.44,80.64,110.00,45.00,27.10,101.30,77.78,155.56,49.91,49.85,70.00,41.67,24.59
1,159.81,95.71,126.67,98.43,3.86,2.00,2.00,2.76,6.48,20.00,3.00,9.65,90.20,110.00,113.33,48.32,23.65,16.50,57.50,69.39,77.97,110.00,40.00,24.64,97.56,71.11,148.89,47.79,48.44,66.67,25.00,24.02
1,158.17,95.71,126.67,97.34,3.86,2.00,2.00,2.76,7.28,23.33,3.00,10.58,85.88,95.00,113.33,45.78,21.86,16.00,50.00,61.59,76.68,110.00,35.00,23.35,94.17,64.44,144.44,44.91,48.75,70.00,25.00,24.18
1,160.26,97.14,130.00,99.74,3.86,2.00,2.00,2.76,7.33,23.33,3.00,10.58,84.17,95.00,116.67,42.35,20.68,15.00,47.50,58.49,73.54,103.33,30.00,21.28,92.83,64.44,140.00,44.64,49.14,73.33,25.00,24.26
1,160.88,100.00,136.67,97.79,3.88,2.00,2.00,2.76,7.42,23.33,3.00,10.60,83.82,95.00,118.33,42.03,20.74,15.50,50.00,58.44,71.93,100.00,25.00,20.73,92.71,66.67,137.78,44.46,47.75,70.00,25.00,22.88
1,162.31,100.00,143.33,96.60,4.93,2.50,2.50,3.29,8.90,26.67,3.50,13.75,82.94,95.00,121.67,39.41,18.36,14.00,42.50,46.53,70.86,90.00,25.00,20.77,92.95,64.44,137.78,44.89,50.03,73.33,25.00,24.10
1,156.30,95.71,133.33,93.18,5.61,3.00,3.00,4.31,7.45,20.00,3.00,10.62,83.20,100.00,123.33,38.28,19.65,15.00,50.00,50.78,69.20,90.00,25.00,20.36,87.32,53.33,128.89,41.69,49.57,70.00,25.00,23.89
1,160.47,97.14,146.67,94.57,5.63,3.00,3.00,4.31,7.42,20.00,3.00,10.61,84.00,100.00,123.33,39.38,20.29,15.50,52.50,56.33,72.04,100.00,30.00,21.81,87.89,55.56,126.67,43.03,50.61,73.33,25.00,24.02
1,160.56,94.29,146.67,96.58,5.63,3.00,3.00,4.31,7.38,20.00,3.00,10.61,84.06,100.00,120.00,39.46,20.70,16.00,52.50,59.03,74.80,110.00,30.00,22.57,86.07,53.33,122.22,42.00,50.37,76.67,25.00,22.91
1,154.20,92.86,140.00,88.31,5.64,3.00,3.00,4.31,5.93,16.67,2.00,9.36,79.67,85.00,120.00,37.38,19.62,15.00,50.00,56.27,73.37,106.67,25.00,21.84,78.21,46.67,115.56,34.18,49.22,70.00,25.00,22.46
1,153.53,94.29,140.00,86.21,4.29,2.00,2.00,3.36,5.10,13.33,2.00,7.08,78.43,80.00,123.33,35.73,18.25,14.00,50.00,50.99,75.61,113.33,35.00,23.21,76.34,44.44,117.78,31.89,47.95,66.67,25.00,21.30
1,152.86,95.71,136.67,83.49,4.25,2.00,2.00,3.36,5.07,13.33,2.00,7.07,75.19,70.00,121.67,32.37,18.33,15.00,52.50,49.49,74.76,110.00,35.00,22.83,77.19,44.44,117.78,31.74,47.30,66.67,25.00,20.59
1,150.96,94.29,130.00,82.02,4.26,2.00,2.00,3.36,5.07,13.33,2.00,7.07,73.14,60.00,120.00,30.82,17.06,14.50,45.00,46.47,74.72,103.33,35.00,22.98,70.17,37.78,113.33,25.58,47.04,66.67,25.00,20.82
1,149.83,94.29,126.67,80.32,6.03,3.00,3.00,5.10,5.08,13.33,2.00,7.07,73.15,60.00,121.67,30.26,16.08,13.50,42.50,45.03,74.15,103.33,35.00,22.94,68.50,33.33,108.89,25.21,47.32,66.67,16.67,21.13
1,150.94,94.29,130.00,81.69,6.15,3.00,3.00,5.13,5.07,13.33,2.00,7.07,71.07,50.00,125.00,27.20,15.33,13.50,42.50,37.79,72.40,93.33,35.00,22.26,66.42,31.11,102.22,24.56,46.50,63.33,16.67,20.93
1,150.93,94.29,123.33,82.33,6.14,3.00,3.00,5.13,5.06,13.33,2.00,7.07,71.45,50.00,125.00,27.41,14.77,13.00,42.50,36.60,76.26,110.00,45.00,23.93,67.80,28.89,113.33,24.00,44.82,60.00,16.67,20.15
1,148.67,91.43,123.33,81.28,6.03,3.00,3.00,5.11,5.06,13.33,2.00,7.07,71.19,50.00,126.67,26.88,13.57,11.50,37.50,34.17,73.78,100.00,40.00,22.68,64.02,26.67,111.11,21.56,44.02,56.67,8.33,19.71
1,148.11,90.00,126.67,81.83,4.35,2.00,2.00,3.50,5.06,13.33,2.00,7.07,69.37,50.00,126.67,25.68,13.44,11.50,37.50,34.12,75.50,106.67,50.00,21.91,62.62,26.67,108.89,20.33,42.48,53.33,8.33,18.25
1,146.18,88.57,116.67,81.77,4.11,2.00,2.00,3.32,5.06,13.33,2.00,7.07,69.19,45.00,126.67,24.47,15.04,13.00,45.00,37.23,75.10,100.00,50.00,22.18,64.39,28.89,113.33,21.04,42.81,56.67,8.33,18.80
1,144.22,90.00,113.33,78.93,4.11,2.00,2.00,3.32,6.65,23.33,2.50,9.28,67.33,45.00,121.67,24.18,15.54,13.50,47.50,38.50,79.97,110.00,55.00,24.80,62.31,24.44,111.11,19.10,41.61,50.00,8.33,18.52
1,145.23,92.86,120.00,77.18,4.13,2.00,2.00,3.32,6.89,23.33,2.50,9.55,66.41,45.00,120.00,24.68,15.33,13.50,47.50,38.44,76.23,110.00,45.00,22.61,63.49,28.89,111.11,19.35,41.27,46.67,8.33,17.51
1,146.88,94.29,116.67,77.66,4.13,2.00,2.00,3.32,6.89,23.33,2.50,9.55,64.81,40.00,123.33,22.41,15.52,13.50,50.00,39.21,77.33,110.00,45.00,22.86,62.80,26.67,108.89,19.02,40.34,46.67,8.33,17.06
1,147.03,92.86,120.00,78.44,5.42,2.50,2.50,4.10,7.81,30.00,2.50,11.12,64.00,35.00,121.67,19.97,14.32,12.50,47.50,36.84,74.24,96.67,45.00,21.74,61.15,24.44,111.11,17.37,40.84,50.00,8.33,17.18
