0,70.21,38.57,3.33,20.40,10.10,6.00,7.50,9.83,5.50,20.00,2.00,7.68,29.37,5.00,51.67,5.39,0.00,0.00,0.00,0.00,17.94,0.00,0.00,1.41,20.71,0.00,11.11,2.22,10.46,0.00,0.00,1.15
0,71.48,38.57,3.33,21.34,10.10,6.00,7.50,9.83,5.28,20.00,2.00,7.68,29.18,5.00,51.67,5.32,0.00,0.00,0.00,0.00,17.89,0.00,0.00,1.44,20.83,0.00,11.11,2.23,10.64,0.00,0.00,1.19
0,69.92,38.57,3.33,20.89,10.10,6.00,7.50,9.83,3.30,10.00,1.00,5.78,29.44,5.00,53.33,5.25,0.00,0.00,0.00,0.00,18.23,0.00,0.00,1.50,21.20,0.00,11.11,2.24,10.90,0.00,0.00,1.26
0,67.82,34.29,3.33,19.94,9.70,6.00,7.00,9.83,1.22,3.33,0.00,0.97,29.83,5.00,56.67,5.36,0.00,0.00,0.00,0.00,18.07,0.00,0.00,1.45,20.50,0.00,8.89,2.07,11.09,0.00,0.00,1.31
0,67.39,32.86,3.33,19.66,6.87,4.50,5.00,6.81,0.52,0.00,0.00,0.01,30.04,5.00,56.67,5.38,0.00,0.00,0.00,0.00,17.62,0.00,0.00,1.40,20.23,0.00,8.89,2.03,11.55,0.00,0.00,1.36
0,67.93,32.86,3.33,20.08,5.42,3.50,3.50,4.64,0.54,0.00,0.00,0.01,31.84,5.00,61.67,5.91,0.00,0.00,0.00,0.00,17.46,0.00,0.00,1.39,21.24,0.00,8.89,2.25,12.08,0.00,0.00,1.51
0,72.41,35.71,6.67,22.18,5.06,3.00,3.50,4.46,0.54,0.00,0.00,0.01,32.18,5.00,60.00,6.02,0.00,0.00,0.00,0.00,17.90,0.00,0.00,1.50,20.87,0.00,8.89,2.22,12.43,0.00,0.00,1.64
0,75.62,35.71,10.00,23.30,5.05,3.00,3.50,4.46,0.54,0.00,0.00,0.01,32.10,5.00,56.67,6.20,0.00,0.00,0.00,0.00,18.14,0.00,0.00,1.56,21.31,0.00,8.89,2.28,12.77,0.00,0.00,1.83
0,77.38,35.71,16.67,25.03,5.04,3.00,3.50,4.46,0.54,0.00,0.00,0.01,33.41,5.00,60.00,6.53,0.00,0.00,0.00,0.00,20.45,3.33,0.00,2.44,21.27,0.00,8.89,2.26,12.84,0.00,0.00,1.89
0,77.84,32.86,16.67,26.31,5.05,3.00,3.50,4.46,0.55,0.00,0.00,0.01,33.07,5.00,60.00,6.46,0.00,0.00,0.00,0.00,19.84,3.33,0.00,2.29,20.47,0.00,6.67,2.08,13.19,0.00,0.00,1.96
0,80.14,37.14,16.67,27.55,5.06,3.00,3.50,4.46,0.52,0.00,0.00,0.01,33.80,5.00,68.33,6.54,0.00,0.00,0.00,0.00,20.99,3.33,0.00,2.44,19.73,0.00,6.67,2.01,13.31,0.00,0.00,1.96
0,82.36,37.14,16.67,28.11,5.07,3.00,3.50,4.46,1.82,6.67,0.50,1.20,34.49,5.00,68.33,6.84,0.00,0.00,0.00,0.00,21.87,3.33,0.00,2.73,20.15,0.00,6.67,2.07,13.27,0.00,0.00,1.94
0,86.34,41.43,23.33,31.42,5.07,3.00,3.50,4.46,3.45,13.33,1.00,4.61,33.58,5.00,63.33,6.64,0.00,0.00,0.00,0.00,22.43,3.33,0.00,2.89,19.90,0.00,6.67,2.02,13.50,0.00,0.00,1.96
0,87.69,41.43,23.33,33.31,3.98,2.00,2.00,4.12,4.48,23.33,1.00,5.47,33.40,5.00,65.00,6.56,0.00,0.00,0.00,0.00,22.98,3.33,0.00,2.95,19.08,0.00,4.44,1.88,13.39,0.00,0.00,1.96
0,87.04,40.00,23.33,32.71,1.36,0.50,0.00,1.69,4.59,23.33,1.00,5.53,34.53,5.00,68.33,6.68,0.00,0.00,0.00,0.00,23.49,3.33,0.00,3.02,19.63,0.00,4.44,1.94,13.81,0.00,0.00,2.04
0,88.09,41.43,23.33,32.55,0.50,0.00,0.00,0.01,4.58,23.33,1.00,5.53,35.50,5.00,70.00,6.98,0.00,0.00,0.00,0.00,24.07,3.33,0.00,3.11,19.88,0.00,6.67,2.08,14.30,0.00,0.00,2.27
0,89.87,42.86,26.67,32.59,0.47,0.00,0.00,0.01,4.61,23.33,1.00,5.53,33.29,0.00,66.67,6.09,0.00,0.00,0.00,0.00,24.23,3.33,0.00,3.13,19.17,0.00,6.67,1.97,14.09,0.00,0.00,2.24
0,91.08,44.29,30.00,34.04,0.47,0.00,0.00,0.01,4.63,23.33,1.00,5.53,33.75,0.00,70.00,6.12,0.00,0.00,0.00,0.00,24.38,3.33,0.00,3.15,18.81,0.00,6.67,1.94,13.94,0.00,0.00,2.16
0,92.07,41.43,33.33,35.15,0.48,0.00,0.00,0.01,4.63,23.33,1.00,5.53,34.20,0.00,71.67,6.27,0.00,0.00,0.00,0.00,23.92,3.33,0.00,3.12,18.58,0.00,6.67,1.90,13.87,0.00,0.00,2.11
0,92.06,42.86,33.33,35.04,0.48,0.00,0.00,0.01,5.94,30.00,1.00,6.52,33.17,0.00,66.67,5.92,0.00,0.00,0.00,0.00,23.00,3.33,0.00,3.03,17.58,0.00,4.44,1.72,14.13,0.00,0.00,2.17
0,91.87,42.86,33.33,35.73,0.48,0.00,0.00,0.01,8.23,40.00,2.00,9.19,33.62,0.00,68.33,6.07,0.00,0.00,0.00,0.00,23.24,3.33,0.00,3.07,17.54,0.00,4.44,1.68,14.09,0.00,0.00,2.17
0,94.35,47.14,36.67,36.53,0.46,0.00,0.00,0.01,10.42,46.67,3.50,14.34,34.42,0.00,73.33,6.26,0.00,0.00,0.00,0.00,23.63,3.33,0.00,3.09,18.10,0.00,4.44,1.82,14.18,0.00,0.00,2.15
0,95.74,50.00,36.67,36.78,1.76,0.50,0.50,0.79,11.11,50.00,3.50,15.29,35.10,0.00,75.00,6.28,0.00,0.00,0.00,0.00,24.95,6.67,0.00,3.37,17.94,0.00,4.44,1.74,14.15,0.00,0.00,2.19
0,95.98,50.00,36.67,37.00,3.31,1.50,2.50,2.96,11.13,50.00,3.50,15.29,35.23,0.00,75.00,6.52,0.00,0.00,0.00,0.00,25.20,6.67,0.00,3.45,17.85,0.00,4.44,1.74,14.29,0.00,0.00,2.22
0,99.69,54.29,43.33,38.94,4.17,2.50,3.50,3.40,11.11,50.00,3.50,15.29,35.05,0.00,75.00,6.49,0.00,0.00,0.00,0.00,25.29,6.67,0.00,3.46,17.86,0.00,4.44,1.72,13.90,0.00,0.00,2.15
0,102.66,60.00,43.33,41.05,4.23,2.50,3.50,3.42,11.11,50.00,3.50,15.29,35.07,0.00,75.00,6.50,0.00,0.00,0.00,0.00,25.48,6.67,0.00,3.44,18.25,0.00,4.44,1.79,13.62,0.00,0.00,2.10
0,103.80,61.43,43.33,41.64,4.23,2.50,3.50,3.42,11.07,50.00,3.50,15.29,35.59,0.00,75.00,6.80,0.00,0.00,0.00,0.00,25.15,6.67,0.00,3.39,18.02,0.00,4.44,1.64,13.83,0.00,0.00,2.25
0,102.56,62.86,43.33,41.13,4.23,2.50,3.50,3.42,11.07,50.00,3.50,15.28,35.37,0.00,78.33,6.81,0.00,0.00,0.00,0.00,24.56,6.67,0.00,3.24,18.15,0.00,4.44,1.62,13.47,0.00,0.00,2.17
0,102.47,62.86,43.33,41.99,4.22,2.50,3.50,3.42,11.07,50.00,3.50,15.28,35.20,0.00,81.67,6.58,0.00,0.00,0.00,0.00,24.60,6.67,0.00,3.22,17.65,0.00,4.44,1.50,13.07,0.00,0.00,1.96
0,99.83,64.29,33.33,39.45,4.22,2.50,3.50,3.42,11.07,50.00,3.50,15.28,34.66,0.00,81.67,6.45,0.00,0.00,0.00,0.00,23.64,3.33,0.00,2.83,17.53,0.00,4.44,1.51,13.43,0.00,0.00,2.00
0,100.43,65.71,40.00,39.24,5.19,3.50,4.50,3.96,11.07,50.00,3.50,15.28,33.72,0.00,78.33,6.08,0.00,0.00,0.00,0.00,23.60,3.33,0.00,2.62,18.11,0.00,4.44,1.59,12.84,0.00,0.00,1.86
0,103.30,70.00,43.33,41.32,7.55,4.50,6.50,6.34,11.07,50.00,3.50,15.28,32.73,0.00,70.00,5.92,0.00,0.00,0.00,0.00,23.34,3.33,0.00,2.63,18.13,0.00,4.44,1.63,13.10,0.00,0.00,1.95
0,104.81,72.86,46.67,43.21,9.33,5.50,7.50,8.82,11.08,50.00,3.50,15.29,33.04,0.00,71.67,5.91,0.00,0.00,0.00,0.00,23.96,3.33,0.00,2.52,18.22,0.00,4.44,1.72,13.49,0.00,0.00,2.07
0,101.86,71.43,40.00,40.93,9.36,5.50,7.50,8.83,8.86,40.00,2.50,11.81,33.01,0.00,73.33,5.92,0.00,0.00,0.00,0.00,23.62,3.33,0.00,2.36,18.32,0.00,4.44,1.74,13.39,0.00,0.00,2.09
0,101.54,71.43,40.00,40.34,9.36,5.50,7.50,8.83,7.35,30.00,2.50,10.15,33.00,0.00,70.00,6.08,0.00,0.00,0.00,0.00,23.63,3.33,0.00,2.41,18.70,0.00,4.44,1.77,13.63,0.00,0.00,2.14
0,105.23,75.71,50.00,43.34,9.36,5.50,7.50,8.83,7.03,26.67,2.50,9.77,32.11,0.00,66.67,5.93,0.00,0.00,0.00,0.00,23.83,3.33,0.00,2.45,18.12,0.00,4.44,1.71,13.41,0.00,0.00,2.11
0,104.46,75.71,50.00,42.65,9.36,5.50,7.50,8.83,7.02,26.67,2.50,9.77,30.70,0.00,63.33,5.47,0.00,0.00,0.00,0.00,23.35,3.33,0.00,2.33,17.93,0.00,4.44,1.67,12.42,0.00,0.00,1.82
0,106.63,80.00,53.33,43.53,9.35,5.50,7.50,8.83,7.00,26.67,2.50,9.77,30.89,0.00,63.33,5.50,0.00,0.00,0.00,0.00,24.76,3.33,0.00,2.74,18.45,0.00,4.44,1.76,12.29,0.00,0.00,1.78
0,105.46,77.14,50.00,43.74,9.35,5.50,7.50,8.83,6.98,26.67,2.50,9.77,30.30,0.00,60.00,5.44,0.00,0.00,0.00,0.00,25.26,3.33,0.00,2.79,19.04,0.00,4.44,1.89,11.99,0.00,0.00,1.74
0,103.03,74.29,46.67,43.41,9.35,5.50,7.50,8.83,6.97,26.67,2.50,9.77,29.41,0.00,56.67,5.27,0.00,0.00,0.00,0.00,25.24,3.33,0.00,2.79,19.53,0.00,4.44,1.94,11.75,0.00,0.00,1.68
0,103.11,75.71,50.00,43.14,9.35,5.50,7.50,8.83,5.96,20.00,2.50,8.85,28.79,0.00,55.00,5.16,0.00,0.00,0.00,0.00,26.12,3.33,0.00,2.84,19.93,0.00,4.44,1.97,11.82,0.00,0.00,1.66
0,103.20,74.29,50.00,43.43,9.36,5.50,7.50,8.83,4.62,13.33,2.00,7.25,28.17,0.00,53.33,4.98,0.00,0.00,0.00,0.00,27.51,6.67,0.00,3.27,19.39,0.00,2.22,1.88,11.90,0.00,0.00,1.69
0,99.50,70.00,46.67,42.16,9.36,5.50,7.50,8.83,2.30,6.67,0.50,3.76,27.85,0.00,51.67,4.92,0.00,0.00,0.00,0.00,27.48,6.67,0.00,3.27,19.45,0.00,2.22,1.80,11.82,0.00,0.00,1.67
0,98.08,65.71,46.67,41.83,9.35,5.50,7.50,8.83,0.52,0.00,0.00,0.03,27.71,0.00,50.00,4.93,0.00,0.00,0.00,0.00,27.66,3.33,0.00,3.45,19.71,0.00,2.22,1.87,11.60,0.00,0.00,1.60
0,99.96,71.43,50.00,42.03,7.16,4.50,5.50,6.53,0.48,0.00,0.00,0.01,27.60,0.00,48.33,4.85,0.00,0.00,0.00,0.00,27.08,3.33,0.00,3.12,20.66,0.00,2.22,2.03,11.48,0.00,0.00,1.53
0,100.20,71.43,43.33,42.34,5.84,3.00,4.00,5.58,0.48,0.00,0.00,0.01,27.64,0.00,48.33,5.23,0.00,0.00,0.00,0.00,27.08,3.33,0.00,3.13,20.75,0.00,2.22,2.09,11.57,0.00,0.00,1.54
0,97.28,65.71,43.33,40.61,5.59,3.00,4.00,5.42,0.48,0.00,0.00,0.01,28.45,0.00,48.33,5.56,0.00,0.00,0.00,0.00,28.68,10.00,0.00,3.66,21.15,0.00,2.22,2.12,12.20,0.00,0.00,1.68
0,97.60,64.29,46.67,41.81,5.58,3.00,4.00,5.42,0.48,0.00,0.00,0.01,28.66,0.00,51.67,5.27,0.00,0.00,0.00,0.00,30.65,13.33,0.00,4.56,20.94,0.00,2.22,2.15,12.12,0.00,0.00,1.56
0,97.57,62.86,46.67,42.05,5.59,3.00,4.00,5.42,0.48,0.00,0.00,0.01,28.51,0.00,51.67,5.03,0.00,0.00,0.00,0.00,31.05,13.33,0.00,4.63,20.58,0.00,2.22,2.10,12.04,0.00,0.00,1.51
0,94.41,60.00,46.67,41.19,5.59,3.00,4.00,5.42,2.42,6.67,1.00,3.24,27.57,0.00,46.67,4.93,0.00,0.00,0.00,0.00,31.46,13.33,0.00,4.78,21.31,0.00,4.44,2.29,12.49,0.00,0.00,1.55
0,93.10,57.14,46.67,39.64,5.59,3.00,4.00,5.42,4.29,13.33,2.00,6.30,27.57,0.00,46.67,4.92,0.00,0.00,0.00,0.00,30.07,13.33,0.00,4.52,21.40,0.00,4.44,2.36,11.78,0.00,0.00,1.41
0,90.98,55.71,43.33,40.05,4.70,2.00,3.00,4.93,6.02,20.00,2.50,8.54,28.24,0.00,48.33,5.08,0.00,0.00,0.00,0.00,30.05,13.33,0.00,4.50,21.08,0.00,4.44,2.30,12.15,0.00,0.00,1.45
0,86.69,51.43,36.67,36.78,2.71,1.00,1.50,2.66,7.11,26.67,2.50,9.95,28.74,0.00,53.33,5.21,0.00,0.00,0.00,0.00,29.93,13.33,0.00,4.45,21.48,0.00,4.44,2.38,11.67,0.00,0.00,1.35
0,83.44,48.57,33.33,33.87,0.60,0.00,0.00,0.04,7.13,26.67,2.50,9.95,27.37,0.00,48.33,4.88,0.00,0.00,0.00,0.00,28.67,13.33,0.00,4.28,21.37,0.00,4.44,2.32,11.45,0.00,0.00,1.31
0,82.34,48.57,33.33,32.23,0.46,0.00,0.00,0.01,7.13,26.67,2.50,9.95,28.54,0.00,48.33,5.06,0.00,0.00,0.00,0.00,28.29,13.33,0.00,4.23,21.18,0.00,4.44,2.24,11.43,0.00,0.00,1.26
0,82.37,48.57,36.67,32.96,0.47,0.00,0.00,0.01,7.12,26.67,2.50,9.95,29.23,0.00,51.67,5.25,0.00,0.00,0.00,0.00,28.71,13.33,0.00,4.23,21.59,0.00,6.67,2.34,11.37,0.00,0.00,1.22
0,79.40,47.14,30.00,30.75,0.47,0.00,0.00,0.01,7.12,26.67,2.50,9.95,29.57,0.00,53.33,5.19,0.00,0.00,0.00,0.00,27.35,13.33,0.00,4.04,22.16,0.00,6.67,2.43,11.04,0.00,0.00,1.19
0,77.82,47.14,26.67,29.32,0.48,0.00,0.00,0.01,7.71,30.00,2.50,10.27,29.49,0.00,51.67,5.35,0.00,0.00,0.00,0.00,27.12,13.33,0.00,4.01,22.02,0.00,4.44,2.39,11.69,0.00,0.00,1.34
0,78.69,50.00,26.67,30.43,0.48,0.00,0.00,0.01,9.31,36.67,3.00,12.47,29.25,0.00,50.00,5.36,0.00,0.00,0.00,0.00,26.40,13.33,0.00,3.80,22.08,0.00,4.44,2.42,11.92,0.00,0.00,1.36
0,76.06,50.00,23.33,28.26,0.48,0.00,0.00,0.01,11.41,43.33,4.00,16.28,29.33,0.00,50.00,5.44,0.00,0.00,0.00,0.00,25.32,13.33,0.00,3.60,21.80,0.00,4.44,2.38,12.73,0.00,0.00,1.61
0,77.78,51.43,23.33,28.79,2.41,1.00,1.00,2.15,11.55,43.33,4.00,16.33,29.55,0.00,51.67,5.33,0.00,0.00,0.00,0.00,25.05,13.33,0.00,3.55,21.99,0.00,4.44,2.38,12.84,0.00,0.00,1.63
0,80.28,54.29,20.00,29.98,3.54,2.00,2.50,3.03,11.56,43.33,4.00,16.34,30.48,0.00,55.00,5.46,0.00,0.00,0.00,0.00,24.98,13.33,0.00,3.56,22.30,0.00,4.44,2.47,12.59,0.00,0.00,1.62
0,77.79,54.29,20.00,27.83,4.37,3.00,3.50,3.40,11.52,43.33,4.00,16.33,31.02,0.00,56.67,5.61,0.00,0.00,0.00,0.00,23.52,10.00,0.00,3.17,22.68,0.00,4.44,2.57,12.19,0.00,0.00,1.53
0,83.74,60.00,23.33,32.13,4.96,3.50,4.50,3.68,11.52,43.33,4.00,16.33,31.42,0.00,56.67,5.75,0.00,0.00,0.00,0.00,24.09,10.00,0.00,3.27,22.53,0.00,4.44,2.55,12.28,0.00,0.00,1.54
0,84.39,61.43,23.33,33.50,4.97,3.50,4.50,3.68,11.51,43.33,4.00,16.33,30.86,0.00,55.00,5.68,0.00,0.00,0.00,0.00,22.96,10.00,0.00,3.02,22.36,0.00,4.44,2.53,12.17,0.00,0.00,1.51
0,83.59,58.57,20.00,33.56,4.97,3.50,4.50,3.68,11.51,43.33,4.00,16.33,30.58,0.00,53.33,5.60,0.00,0.00,0.00,0.00,23.14,10.00,0.00,3.13,22.24,0.00,4.44,2.47,12.13,0.00,0.00,1.49
0,84.15,58.57,23.33,35.01,4.96,3.50,4.50,3.68,11.52,43.33,4.00,16.33,29.74,0.00,50.00,5.23,0.00,0.00,0.00,0.00,23.52,10.00,0.00,3.17,21.60,0.00,4.44,2.39,12.19,0.00,0.00,1.50
0,85.96,58.57,23.33,35.29,4.96,3.50,4.50,3.68,11.52,43.33,4.00,16.33,29.32,0.00,51.67,4.77,0.00,0.00,0.00,0.00,23.24,6.67,0.00,3.23,21.39,0.00,4.44,2.34,11.45,0.00,0.00,1.33
0,85.58,60.00,23.33,36.46,5.64,4.00,5.50,4.06,11.52,43.33,4.00,16.33,29.01,0.00,46.67,4.76,0.00,0.00,0.00,0.00,21.40,0.00,0.00,2.04,20.70,0.00,4.44,2.26,11.01,0.00,0.00,1.27
0,83.17,57.14,20.00,33.02,7.76,5.50,7.00,6.32,11.54,43.33,4.00,16.33,28.52,0.00,41.67,4.85,0.00,0.00,0.00,0.00,21.95,0.00,0.00,2.11,21.40,0.00,4.44,2.43,10.62,0.00,0.00,1.23
0,83.22,58.57,20.00,33.06,8.04,5.50,7.00,6.56,10.04,40.00,3.00,13.71,28.97,0.00,43.33,4.87,0.00,0.00,0.00,0.00,21.89,0.00,0.00,2.10,21.52,0.00,2.22,2.40,10.23,0.00,0.00,1.17
0,86.95,61.43,23.33,35.29,8.06,5.50,7.00,6.56,7.87,30.00,2.00,10.30,29.95,0.00,45.00,5.11,0.00,0.00,0.00,0.00,22.29,0.00,0.00,2.14,21.46,0.00,2.22,2.36,10.25,0.00,0.00,1.18
0,87.23,60.00,23.33,35.50,8.05,5.50,7.00,6.56,6.27,23.33,1.50,7.96,29.21,0.00,43.33,5.01,0.00,0.00,0.00,0.00,23.55,0.00,0.00,2.40,22.07,0.00,4.44,2.44,10.16,0.00,0.00,1.17
0,88.10,60.00,23.33,37.26,8.04,5.50,7.00,6.56,4.97,16.67,1.50,6.41,29.34,0.00,40.00,5.08,0.00,0.00,0.00,0.00,23.86,0.00,0.00,2.47,21.97,0.00,6.67,2.43,10.52,0.00,0.00,1.23
0,88.62,60.00,23.33,37.56,8.02,5.50,7.00,6.56,4.89,16.67,1.50,6.39,29.87,0.00,43.33,5.22,0.00,0.00,0.00,0.00,24.19,0.00,0.00,2.48,21.87,0.00,6.67,2.44,10.57,0.00,0.00,1.25
0,90.03,62.86,23.33,39.00,8.02,5.50,7.00,6.56,4.89,16.67,1.50,6.39,29.04,0.00,41.67,4.97,0.00,0.00,0.00,0.00,24.78,0.00,0.00,2.71,22.67,0.00,6.67,2.62,11.10,0.00,0.00,1.37
0,89.78,61.43,20.00,40.35,8.02,5.50,7.00,6.56,4.90,16.67,1.50,6.39,28.05,0.00,36.67,4.76,0.00,0.00,0.00,0.00,24.68,0.00,0.00,2.79,22.08,0.00,4.44,2.65,11.35,0.00,0.00,1.40
0,87.42,58.57,16.67,38.21,8.02,5.50,7.00,6.56,4.91,16.67,1.50,6.39,27.70,0.00,35.00,4.68,0.00,0.00,0.00,0.00,25.45,0.00,0.00,2.93,21.93,0.00,4.44,2.56,11.96,0.00,0.00,1.53
0,88.72,55.71,20.00,39.34,8.01,5.50,7.00,6.56,4.49,13.33,1.50,6.27,27.58,0.00,38.33,4.56,0.00,0.00,0.00,0.00,25.65,0.00,0.00,2.97,22.00,0.00,6.67,2.53,11.21,0.00,0.00,1.34
0,87.74,55.71,20.00,38.33,8.01,5.50,7.00,6.56,3.08,10.00,1.00,4.28,28.36,0.00,38.33,4.62,0.00,0.00,0.00,0.00,25.84,0.00,0.00,3.00,22.46,0.00,6.67,2.60,11.74,0.00,0.00,1.46
0,86.69,52.86,16.67,37.88,8.01,5.50,7.00,6.56,0.77,0.00,0.00,0.37,28.88,0.00,41.67,4.66,0.00,0.00,0.00,0.00,25.23,0.00,0.00,2.92,22.45,0.00,6.67,2.60,10.82,0.00,0.00,1.20
0,87.26,54.29,16.67,38.43,6.53,5.00,6.00,4.82,0.47,0.00,0.00,0.01,28.87,0.00,40.00,4.81,0.00,0.00,0.00,0.00,24.65,0.00,0.00,2.86,22.23,0.00,6.67,2.56,11.14,0.00,0.00,1.28
0,84.08,52.86,16.67,37.01,5.03,3.50,4.50,3.60,0.46,0.00,0.00,0.01,28.76,0.00,38.33,4.86,0.00,0.00,0.00,0.00,24.55,0.00,0.00,2.86,21.94,0.00,6.67,2.46,11.98,0.00,0.00,1.50
0,83.20,48.57,16.67,36.56,4.25,2.50,3.50,3.19,0.47,0.00,0.00,0.01,30.06,0.00,40.00,5.38,0.00,0.00,0.00,0.00,23.67,0.00,0.00,2.76,22.15,0.00,6.67,2.45,12.22,0.00,0.00,1.62
0,80.21,44.29,13.33,34.02,3.57,2.00,2.50,2.89,0.47,0.00,0.00,0.01,29.14,0.00,36.67,5.25,0.00,0.00,0.00,0.00,23.18,0.00,0.00,2.68,22.32,0.00,6.67,2.48,13.21,0.00,0.00,1.91
0,79.50,44.29,13.33,32.88,3.52,2.00,2.50,2.89,0.47,0.00,0.00,0.01,28.58,0.00,35.00,4.97,0.00,0.00,0.00,0.00,22.86,0.00,0.00,2.63,22.08,0.00,6.67,2.43,13.54,0.00,0.00,2.01
0,77.67,44.29,13.33,31.29,3.53,2.00,2.50,2.89,0.47,0.00,0.00,0.01,29.17,0.00,36.67,5.12,0.00,0.00,0.00,0.00,22.06,0.00,0.00,2.45,22.08,0.00,6.67,2.45,13.77,0.00,0.00,2.07
0,77.22,45.71,13.33,29.96,3.54,2.00,2.50,2.89,0.47,0.00,0.00,0.01,30.13,0.00,41.67,5.40,0.00,0.00,0.00,0.00,21.75,0.00,0.00,2.40,22.77,0.00,6.67,2.51,13.96,0.00,0.00,2.08
0,75.34,44.29,13.33,29.31,3.54,2.00,2.50,2.89,1.96,6.67,1.00,2.63,30.34,0.00,40.00,5.54,0.00,0.00,0.00,0.00,21.35,0.00,0.00,2.35,22.64,0.00,6.67,2.47,14.36,0.00,0.00,2.20
0,74.03,41.43,10.00,26.95,3.36,2.00,2.00,2.89,4.20,16.67,2.00,6.24,29.58,0.00,40.00,5.35,0.00,0.00,0.00,0.00,20.32,0.00,0.00,2.16,22.56,0.00,6.67,2.44,14.89,0.00,0.00,2.29
0,76.48,44.29,16.67,28.47,1.34,0.50,0.00,1.60,5.37,23.33,2.00,7.63,30.01,0.00,41.67,5.47,0.00,0.00,0.00,0.00,19.25,0.00,0.00,1.93,22.67,0.00,6.67,2.34,15.92,0.00,0.00,2.64
0,77.35,44.29,16.67,29.06,0.51,0.00,0.00,0.01,5.50,23.33,2.00,7.71,30.19,0.00,43.33,5.46,0.00,0.00,0.00,0.00,18.22,0.00,0.00,1.78,22.25,0.00,6.67,2.32,16.31,0.00,0.00,2.73
0,76.48,44.29,16.67,28.77,0.46,0.00,0.00,0.01,6.55,30.00,2.00,8.59,29.41,0.00,40.00,5.30,0.00,0.00,0.00,0.00,17.64,0.00,0.00,1.71,22.02,0.00,6.67,2.28,16.00,0.00,0.00,2.67
0,74.04,42.86,13.33,25.78,0.47,0.00,0.00,0.01,6.56,30.00,2.00,8.59,29.13,0.00,38.33,5.26,0.00,0.00,0.00,0.00,16.87,0.00,0.00,1.60,22.03,0.00,6.67,2.32,15.94,0.00,0.00,2.66
0,72.86,42.86,13.33,25.44,0.48,0.00,0.00,0.01,6.56,30.00,2.00,8.59,28.52,0.00,36.67,5.16,0.00,0.00,0.00,0.00,15.67,0.00,0.00,1.36,21.12,0.00,2.22,2.12,15.91,0.00,0.00,2.68
0,71.54,41.43,13.33,25.22,0.49,0.00,0.00,0.01,6.59,30.00,2.00,8.59,28.05,0.00,36.67,4.87,0.00,0.00,0.00,0.00,15.93,0.00,0.00,1.44,21.07,0.00,2.22,2.06,15.80,0.00,0.00,2.68
0,67.94,38.57,13.33,21.88,0.49,0.00,0.00,0.01,7.09,33.33,2.00,8.78,28.20,0.00,40.00,4.89,0.00,0.00,0.00,0.00,14.87,0.00,0.00,1.30,20.80,0.00,2.22,2.01,15.55,0.00,0.00,2.63
0,66.05,35.71,13.33,20.21,0.49,0.00,0.00,0.01,8.75,40.00,3.00,11.51,27.75,0.00,40.00,4.77,0.00,0.00,0.00,0.00,13.91,0.00,0.00,1.02,20.33,0.00,2.22,1.81,15.29,0.00,0.00,2.55
0,65.23,35.71,13.33,20.29,0.49,0.00,0.00,0.01,11.14,50.00,4.00,15.65,28.26,0.00,43.33,4.85,0.00,0.00,0.00,0.00,13.61,0.00,0.00,0.94,20.15,0.00,2.22,1.81,15.09,0.00,0.00,2.53
0,61.45,31.43,10.00,18.41,1.97,0.50,1.00,1.75,11.43,50.00,4.00,16.02,27.96,0.00,40.00,4.88,0.00,0.00,0.00,0.00,13.19,0.00,0.00,0.83,20.01,0.00,0.00,1.81,15.23,0.00,0.00,2.50
0,61.36,31.43,10.00,18.77,3.40,2.00,2.50,2.88,11.44,50.00,4.00,16.02,28.13,0.00,41.67,5.01,0.00,0.00,0.00,0.00,13.50,0.00,0.00,0.89,19.15,0.00,0.00,1.70,15.27,0.00,0.00,2.54
0,61.47,30.00,10.00,18.86,3.74,2.00,2.50,3.01,11.44,50.00,4.00,16.02,27.32,0.00,38.33,4.93,0.00,0.00,0.00,0.00,13.67,0.00,0.00,0.94,18.61,0.00,0.00,1.58,14.83,0.00,0.00,2.49
0,61.63,30.00,10.00,19.03,3.77,2.00,2.50,3.01,11.43,50.00,4.00,16.02,27.17,0.00,40.00,4.73,0.00,0.00,0.00,0.00,13.89,0.00,0.00,0.99,18.61,0.00,0.00,1.54,14.99,0.00,0.00,2.59
0,61.16,30.00,10.00,19.04,3.76,2.00,2.50,3.01,11.44,50.00,4.00,16.02,27.21,0.00,41.67,4.70,0.00,0.00,0.00,0.00,13.96,0.00,0.00,1.03,18.28,0.00,0.00,1.53,14.72,0.00,0.00,2.55
0,60.96,30.00,10.00,18.91,3.75,2.00,2.50,3.01,11.45,50.00,4.00,16.02,26.13,0.00,38.33,4.30,0.00,0.00,0.00,0.00,13.77,0.00,0.00,1.01,17.34,0.00,0.00,1.44,14.95,0.00,0.00,2.56
0,61.12,31.43,10.00,18.57,3.75,2.00,2.50,3.01,11.45,50.00,4.00,16.02,26.57,0.00,41.67,4.33,0.00,0.00,0.00,0.00,13.98,0.00,0.00,1.02,17.14,0.00,0.00,1.41,14.04,0.00,0.00,2.28
0,60.51,30.00,10.00,18.52,3.75,2.00,2.50,3.01,11.45,50.00,4.00,16.02,26.99,0.00,43.33,4.44,0.00,0.00,0.00,0.00,14.02,0.00,0.00,1.03,17.25,0.00,0.00,1.45,13.73,0.00,0.00,2.23
0,63.04,31.43,10.00,19.29,4.46,2.50,3.50,3.29,11.45,50.00,4.00,16.02,26.50,0.00,41.67,4.29,0.00,0.00,0.00,0.00,14.65,0.00,0.00,1.10,17.13,0.00,0.00,1.46,13.61,0.00,0.00,2.23
0,61.51,28.57,6.67,18.63,5.30,3.00,4.00,3.53,11.45,50.00,4.00,16.02,27.02,0.00,41.67,4.45,0.00,0.00,0.00,0.00,14.61,0.00,0.00,1.10,17.60,0.00,0.00,1.52,14.28,0.00,0.00,2.44
0,61.62,30.00,10.00,19.25,6.99,4.00,6.00,5.43,11.03,46.67,3.50,16.02,25.80,0.00,38.33,4.07,0.00,0.00,0.00,0.00,14.61,0.00,0.00,1.12,17.37,0.00,0.00,1.55,13.88,0.00,0.00,2.42
0,59.08,30.00,10.00,18.89,9.36,5.50,7.50,8.16,8.28,36.67,2.00,11.65,25.75,0.00,36.67,4.42,0.00,0.00,0.00,0.00,14.15,0.00,0.00,1.09,17.39,0.00,0.00,1.57,13.46,0.00,0.00,2.36
0,56.45,27.14,3.33,17.77,9.64,5.50,7.50,8.41,6.81,30.00,2.00,8.62,25.83,0.00,36.67,4.50,0.00,0.00,0.00,0.00,14.45,0.00,0.00,1.11,17.38,0.00,0.00,1.62,12.63,0.00,0.00,2.11
0,56.96,28.57,3.33,16.96,9.64,5.50,7.50,8.41,6.40,26.67,2.00,8.31,26.12,0.00,36.67,4.49,0.00,0.00,0.00,0.00,14.39,0.00,0.00,1.10,17.05,0.00,0.00,1.54,12.56,0.00,0.00,2.09
0,57.10,28.57,3.33,16.92,9.64,5.50,7.50,8.41,5.44,20.00,2.00,7.50,26.19,0.00,35.00,4.43,0.00,0.00,0.00,0.00,14.51,0.00,0.00,1.16,16.53,0.00,0.00,1.46,13.07,0.00,0.00,2.25
0,57.52,28.57,3.33,17.06,9.64,5.50,7.50,8.41,5.33,20.00,2.00,7.44,26.34,0.00,38.33,4.49,0.00,0.00,0.00,0.00,14.97,0.00,0.00,1.19,17.11,0.00,0.00,1.51,13.37,0.00,0.00,2.35
0,56.42,28.57,3.33,15.69,9.64,5.50,7.50,8.41,5.33,20.00,2.00,7.44,26.24,0.00,40.00,4.41,0.00,0.00,0.00,0.00,14.75,0.00,0.00,1.21,17.06,0.00,0.00,1.58,12.94,0.00,0.00,2.30
0,55.82,27.14,3.33,15.21,9.63,5.50,7.50,8.41,5.30,20.00,2.00,7.44,26.21,0.00,38.33,4.45,0.00,0.00,0.00,0.00,14.31,0.00,0.00,1.14,16.90,0.00,0.00,1.61,12.91,0.00,0.00,2.29
0,57.53,28.57,3.33,15.98,9.62,5.50,7.50,8.41,5.30,20.00,2.00,7.44,25.38,0.00,31.67,4.36,0.00,0.00,0.00,0.00,14.71,0.00,0.00,1.17,16.82,0.00,0.00,1.61,12.88,0.00,0.00,2.34
0,59.69,31.43,3.33,16.65,9.64,5.50,7.50,8.41,4.15,13.33,1.50,6.90,25.64,0.00,33.33,4.46,0.00,0.00,0.00,0.00,14.63,0.00,0.00,1.18,17.15,0.00,0.00,1.62,12.92,0.00,0.00,2.36
0,58.54,31.43,3.33,16.38,9.64,5.50,7.50,8.41,1.35,3.33,0.00,2.58,25.19,0.00,28.33,4.39,0.00,0.00,0.00,0.00,14.47,0.00,0.00,1.16,16.83,0.00,0.00,1.56,13.10,0.00,0.00,2.42
0,61.97,35.71,6.67,18.14,9.23,5.50,7.00,8.41,0.47,0.00,0.00,0.02,25.60,0.00,33.33,4.42,0.00,0.00,0.00,0.00,14.59,0.00,0.00,1.18,16.75,0.00,0.00,1.53,13.32,0.00,0.00,2.57
0,60.88,34.29,6.67,17.85,7.05,4.00,5.00,5.94,0.43,0.00,0.00,0.01,25.15,0.00,33.33,4.25,0.00,0.00,0.00,0.00,14.34,0.00,0.00,1.18,16.87,0.00,0.00,1.56,13.29,0.00,0.00,2.56
0,62.51,35.71,6.67,18.47,6.47,3.50,5.00,5.42,0.43,0.00,0.00,0.01,25.78,0.00,36.67,4.20,0.00,0.00,0.00,0.00,14.27,0.00,0.00,1.11,17.13,0.00,0.00,1.55,13.38,0.00,0.00,2.57
0,67.09,41.43,13.33,20.82,6.37,3.50,5.00,5.40,0.43,0.00,0.00,0.01,26.96,0.00,40.00,4.49,0.00,0.00,0.00,0.00,14.35,0.00,0.00,1.10,17.72,0.00,2.22,1.69,13.48,0.00,0.00,2.57
0,70.32,44.29,20.00,22.85,6.37,3.50,5.00,5.40,0.42,0.00,0.00,0.01,26.65,0.00,38.33,4.57,0.00,0.00,0.00,0.00,14.07,0.00,0.00,1.01,17.88,0.00,2.22,1.71,13.37,0.00,0.00,2.48
0,72.91,47.14,20.00,24.23,6.38,3.50,5.00,5.40,0.42,0.00,0.00,0.01,27.21,0.00,40.00,4.72,0.00,0.00,0.00,0.00,14.12,0.00,0.00,1.07,18.24,0.00,2.22,1.76,12.63,0.00,0.00,2.43
0,72.60,45.71,20.00,24.26,6.38,3.50,5.00,5.40,0.42,0.00,0.00,0.01,27.31,0.00,41.67,4.62,0.00,0.00,0.00,0.00,14.53,0.00,0.00,1.09,18.62,0.00,2.22,1.90,13.22,0.00,0.00,2.54
0,71.70,45.71,20.00,24.11,6.38,3.50,5.00,5.40,0.84,3.33,0.00,0.01,27.04,0.00,40.00,4.56,0.00,0.00,0.00,0.00,14.33,0.00,0.00,1.07,18.66,0.00,2.22,1.92,13.18,0.00,0.00,2.56
0,72.57,45.71,23.33,24.95,5.73,3.00,4.00,5.15,3.46,13.33,1.50,4.20,27.19,0.00,41.67,4.56,0.00,0.00,0.00,0.00,14.21,0.00,0.00,1.05,19.29,0.00,4.44,2.03,13.34,0.00,0.00,2.60
0,75.30,47.14,23.33,27.25,5.47,3.00,4.00,5.08,4.73,20.00,2.00,6.57,27.64,0.00,45.00,4.70,0.00,0.00,0.00,0.00,14.32,0.00,0.00,1.03,18.51,0.00,4.44,1.86,13.27,0.00,0.00,2.56
0,72.72,44.29,20.00,26.18,4.13,2.00,2.00,4.49,5.48,26.67,2.00,7.03,28.31,0.00,45.00,5.17,0.00,0.00,0.00,0.00,14.44,0.00,0.00,1.03,18.69,0.00,4.44,1.89,12.86,0.00,0.00,2.36
0,74.10,45.71,20.00,26.41,1.37,0.50,0.00,1.71,5.55,26.67,2.00,7.06,27.88,0.00,45.00,4.87,0.00,0.00,0.00,0.00,14.22,0.00,0.00,1.01,18.62,0.00,4.44,1.89,13.32,0.00,0.00,2.43
0,77.56,47.14,23.33,29.15,0.51,0.00,0.00,0.01,5.56,26.67,2.00,7.06,29.17,0.00,48.33,5.22,0.00,0.00,0.00,0.00,13.97,0.00,0.00,0.98,18.70,0.00,4.44,1.91,13.45,0.00,0.00,2.50
0,76.28,45.71,23.33,28.05,0.47,0.00,0.00,0.01,5.56,26.67,2.00,7.06,29.33,0.00,51.67,5.12,0.00,0.00,0.00,0.00,14.04,0.00,0.00,0.98,18.91,0.00,4.44,1.93,13.41,0.00,0.00,2.43
0,77.08,47.14,23.33,28.90,0.47,0.00,0.00,0.01,5.56,26.67,2.00,7.06,29.11,0.00,51.67,5.06,0.00,0.00,0.00,0.00,13.93,0.00,0.00,0.94,19.02,0.00,4.44,1.97,13.23,0.00,0.00,2.36
0,81.49,51.43,30.00,31.79,0.48,0.00,0.00,0.01,5.56,26.67,2.00,7.06,29.44,0.00,50.00,5.20,0.00,0.00,0.00,0.00,14.57,0.00,0.00,0.96,19.33,0.00,6.67,2.00,13.13,0.00,0.00,2.31
0,80.80,50.00,30.00,31.46,0.47,0.00,0.00,0.01,6.61,33.33,2.00,7.73,29.63,0.00,51.67,5.26,0.00,0.00,0.00,0.00,14.41,0.00,0.00,0.92,19.44,0.00,6.67,2.02,13.26,0.00,0.00,2.25
0,81.09,50.00,30.00,31.88,0.48,0.00,0.00,0.01,8.62,43.33,2.50,9.67,29.97,0.00,53.33,5.28,0.00,0.00,0.00,0.00,14.66,0.00,0.00,0.94,19.47,0.00,6.67,1.98,13.45,0.00,0.00,2.33
0,80.55,50.00,30.00,31.60,0.91,0.00,0.00,0.01,10.80,50.00,4.00,14.72,30.95,0.00,56.67,5.52,0.00,0.00,0.00,0.00,14.45,0.00,0.00,0.90,19.57,0.00,6.67,1.96,13.35,0.00,0.00,2.30
0,81.61,50.00,30.00,31.84,3.52,1.50,2.00,2.80,11.49,53.33,4.00,15.67,31.51,0.00,60.00,5.48,0.00,0.00,0.00,0.00,14.54,0.00,0.00,0.91,19.91,0.00,6.67,2.00,13.00,0.00,0.00,2.22
0,82.90,48.57,30.00,33.12,4.61,2.50,3.50,4.22,11.51,53.33,4.00,15.67,31.70,0.00,60.00,5.55,0.00,0.00,0.00,0.00,14.98,0.00,0.00,1.03,19.97,0.00,6.67,2.00,13.12,0.00,0.00,2.27
0,83.43,48.57,26.67,33.53,4.88,3.00,3.50,4.31,11.51,53.33,4.00,15.67,32.04,0.00,60.00,5.80,0.00,0.00,0.00,0.00,15.18,0.00,0.00,1.01,20.28,0.00,6.67,2.09,12.84,0.00,0.00,2.15
0,83.41,48.57,26.67,33.33,4.88,3.00,3.50,4.31,11.51,53.33,4.00,15.67,31.39,0.00,56.67,5.79,0.00,0.00,0.00,0.00,15.39,0.00,0.00,1.00,20.69,0.00,6.67,2.14,12.69,0.00,0.00,2.11
0,86.82,50.00,30.00,36.32,4.88,3.00,3.50,4.31,11.51,53.33,4.00,15.67,31.15,0.00,56.67,5.69,0.00,0.00,0.00,0.00,15.01,0.00,0.00,0.98,20.91,0.00,6.67,2.21,12.53,0.00,0.00,2.07
0,81.38,44.29,23.33,33.17,4.88,3.00,3.50,4.31,11.51,53.33,4.00,15.67,30.87,0.00,56.67,5.57,0.00,0.00,0.00,0.00,15.06,0.00,0.00,0.96,20.24,0.00,4.44,2.11,12.91,0.00,0.00,2.23
0,76.94,38.57,16.67,30.29,4.87,3.00,3.50,4.31,11.51,53.33,4.00,15.67,30.41,0.00,55.00,5.61,0.00,0.00,0.00,0.00,15.16,0.00,0.00,0.97,20.87,0.00,4.44,2.14,12.99,0.00,0.00,2.23
0,77.95,37.14,20.00,30.25,4.86,3.00,3.50,4.31,11.51,53.33,4.00,15.67,29.92,0.00,53.33,5.50,0.00,0.00,0.00,0.00,15.24,0.00,0.00,0.96,20.63,0.00,4.44,2.17,12.66,0.00,0.00,2.01
0,76.76,37.14,20.00,29.45,4.86,3.00,3.50,4.31,11.51,53.33,4.00,15.67,30.29,0.00,56.67,5.63,0.00,0.00,0.00,0.00,15.15,0.00,0.00,0.97,20.20,0.00,4.44,2.05,12.41,0.00,0.00,1.98
0,78.45,40.00,23.33,29.95,6.05,4.00,4.50,4.94,11.52,53.33,4.00,15.67,30.44,0.00,58.33,5.59,0.00,0.00,0.00,0.00,15.33,0.00,0.00,0.97,20.44,0.00,6.67,2.06,12.45,0.00,0.00,1.88
0,78.63,38.57,20.00,30.13,8.02,5.50,6.50,6.17,9.47,43.33,3.00,12.23,30.83,0.00,60.00,5.66,0.00,0.00,0.00,0.00,15.53,0.00,0.00,1.04,20.60,0.00,4.44,2.12,12.40,0.00,0.00,1.81
0,78.89,40.00,20.00,32.44,8.86,6.00,7.00,7.76,7.71,36.67,2.00,9.69,30.59,0.00,56.67,5.55,0.00,0.00,0.00,0.00,15.28,0.00,0.00,1.01,20.63,0.00,4.44,2.11,12.24,0.00,0.00,1.74
0,79.31,40.00,20.00,31.52,8.89,6.00,7.00,7.77,6.62,26.67,2.00,8.82,29.91,0.00,60.00,4.99,0.00,0.00,0.00,0.00,15.25,0.00,0.00,1.02,20.89,0.00,4.44,2.16,12.25,0.00,0.00,1.75
0,79.47,38.57,20.00,31.36,8.89,6.00,7.00,7.77,6.39,26.67,2.00,8.62,30.41,0.00,61.67,5.09,0.00,0.00,0.00,0.00,15.93,0.00,0.00,1.07,20.58,0.00,4.44,2.14,12.77,0.00,0.00,1.96
0,78.08,41.43,16.67,29.59,8.88,6.00,7.00,7.77,6.40,26.67,2.00,8.62,29.79,0.00,61.67,4.78,0.00,0.00,0.00,0.00,15.98,0.00,0.00,1.08,20.51,0.00,6.67,2.10,12.35,0.00,0.00,1.82
0,80.48,44.29,20.00,30.91,8.87,6.00,7.00,7.77,6.40,26.67,2.00,8.62,29.37,0.00,58.33,4.76,0.00,0.00,0.00,0.00,16.18,0.00,0.00,1.11,20.57,0.00,6.67,2.09,12.15,0.00,0.00,1.79
0,80.10,42.86,20.00,31.02,8.87,6.00,7.00,7.77,6.39,26.67,2.00,8.62,29.30,0.00,56.67,4.82,0.00,0.00,0.00,0.00,16.52,0.00,0.00,1.16,21.10,0.00,6.67,2.14,12.00,0.00,0.00,1.80
0,79.02,42.86,16.67,29.26,8.87,6.00,7.00,7.77,6.39,26.67,2.00,8.62,29.16,0.00,58.33,4.65,0.00,0.00,0.00,0.00,15.95,0.00,0.00,1.10,20.76,0.00,4.44,2.08,12.15,0.00,0.00,1.85
0,77.87,41.43,16.67,28.43,8.86,6.00,7.00,7.77,5.55,20.00,2.00,8.00,28.84,0.00,55.00,4.53,0.00,0.00,0.00,0.00,15.52,0.00,0.00,1.06,20.38,0.00,4.44,1.99,12.49,0.00,0.00,1.94
0,81.58,44.29,20.00,30.82,8.87,6.00,7.00,7.77,4.58,13.33,2.00,7.16,28.65,0.00,56.67,4.49,0.00,0.00,0.00,0.00,15.07,0.00,0.00,1.03,19.78,0.00,4.44,1.96,12.55,0.00,0.00,1.89
0,83.37,44.29,20.00,32.22,8.84,6.00,7.00,7.77,2.27,6.67,0.50,3.75,28.73,0.00,56.67,4.53,0.00,0.00,0.00,0.00,15.00,0.00,0.00,1.04,20.40,0.00,4.44,2.09,12.58,0.00,0.00,1.90
0,83.50,42.86,20.00,32.11,6.81,5.00,5.50,5.48,0.49,0.00,0.00,0.02,28.60,0.00,51.67,4.51,0.00,0.00,0.00,0.00,15.41,0.00,0.00,1.07,20.54,0.00,4.44,2.16,12.91,0.00,0.00,1.90
0,84.54,45.71,20.00,33.26,5.11,4.00,4.00,3.78,0.45,0.00,0.00,0.01,28.75,0.00,53.33,4.53,0.00,0.00,0.00,0.00,14.85,0.00,0.00,0.97,21.20,0.00,4.44,2.36,12.79,0.00,0.00,1.85
0,84.11,45.71,23.33,31.84,4.48,3.00,3.50,3.47,0.45,0.00,0.00,0.01,28.79,0.00,51.67,4.35,0.00,0.00,0.00,0.00,14.70,0.00,0.00,0.96,21.05,0.00,4.44,2.33,12.84,0.00,0.00,1.87
0,85.76,47.14,23.33,33.61,4.45,3.00,3.50,3.46,0.44,0.00,0.00,0.01,29.70,0.00,56.67,4.57,0.00,0.00,0.00,0.00,14.75,0.00,0.00,0.99,20.66,0.00,4.44,2.25,12.73,0.00,0.00,1.75
0,81.75,45.71,20.00,30.38,4.47,3.00,3.50,3.46,0.44,0.00,0.00,0.01,29.89,0.00,53.33,4.62,0.00,0.00,0.00,0.00,15.03,0.00,0.00,1.02,20.03,0.00,4.44,2.14,13.10,0.00,0.00,1.81
0,85.65,50.00,20.00,33.36,4.48,3.00,3.50,3.46,0.44,0.00,0.00,0.01,29.97,0.00,51.67,4.62,0.00,0.00,0.00,0.00,14.79,0.00,0.00,1.01,20.11,0.00,4.44,2.11,12.73,0.00,0.00,1.74
0,85.59,51.43,20.00,33.93,4.48,3.00,3.50,3.46,0.46,0.00,0.00,0.01,29.49,0.00,53.33,4.40,0.00,0.00,0.00,0.00,14.63,0.00,0.00,1.02,20.17,0.00,4.44,2.14,12.36,0.00,0.00,1.56
0,85.97,52.86,16.67,33.41,4.48,3.00,3.50,3.46,2.08,6.67,0.50,2.14,29.85,0.00,56.67,4.49,0.00,0.00,0.00,0.00,14.61,0.00,0.00,0.99,20.41,0.00,4.44,2.23,12.92,0.00,0.00,1.71
0,88.13,55.71,16.67,34.38,4.49,3.00,3.50,3.46,3.30,13.33,0.50,3.25,29.04,0.00,50.00,4.28,0.00,0.00,0.00,0.00,14.05,0.00,0.00,0.91,20.72,0.00,4.44,2.29,12.68,0.00,0.00,1.69
0,89.81,58.57,16.67,35.21,3.49,2.00,2.50,2.87,4.18,20.00,0.50,4.15,29.25,0.00,50.00,4.32,0.00,0.00,0.00,0.00,13.91,0.00,0.00,0.89,21.24,0.00,4.44,2.30,12.49,0.00,0.00,1.70
0,86.13,54.29,13.33,34.00,2.62,1.00,1.00,2.40,4.19,20.00,0.50,4.15,29.48,0.00,50.00,4.46,0.00,0.00,0.00,0.00,12.96,0.00,0.00,0.79,20.87,0.00,4.44,2.25,12.37,0.00,0.00,1.68
0,82.49,51.43,13.33,29.99,0.51,0.00,0.00,0.01,4.19,20.00,0.50,4.15,28.70,0.00,48.33,4.22,0.00,0.00,0.00,0.00,12.91,0.00,0.00,0.78,20.73,0.00,4.44,2.19,12.95,0.00,0.00,1.90
0,82.60,52.86,13.33,29.82,0.47,0.00,0.00,0.01,4.19,20.00,0.50,4.15,28.91,0.00,50.00,4.49,0.00,0.00,0.00,0.00,12.84,0.00,0.00,0.78,21.21,0.00,4.44,2.28,12.92,0.00,0.00,1.85
0,81.65,52.86,13.33,29.55,0.47,0.00,0.00,0.01,4.19,20.00,0.50,4.15,29.86,0.00,53.33,4.69,0.00,0.00,0.00,0.00,12.04,0.00,0.00,0.71,22.27,0.00,4.44,2.64,12.33,0.00,0.00,1.63
0,80.64,51.43,13.33,29.42,0.47,0.00,0.00,0.01,5.00,26.67,0.50,4.75,30.18,0.00,53.33,4.81,0.00,0.00,0.00,0.00,12.13,0.00,0.00,0.71,22.17,0.00,2.22,2.61,12.42,0.00,0.00,1.64
0,81.87,51.43,13.33,30.04,0.47,0.00,0.00,0.01,6.64,33.33,1.00,7.13,30.52,0.00,55.00,5.00,0.00,0.00,0.00,0.00,12.34,0.00,0.00,0.72,22.60,0.00,2.22,2.67,12.88,0.00,0.00,1.75
0,82.69,51.43,13.33,30.91,2.35,1.00,1.00,2.07,8.75,40.00,2.00,10.95,30.90,0.00,60.00,5.00,0.00,0.00,0.00,0.00,11.83,0.00,0.00,0.67,22.57,0.00,4.44,2.70,12.93,0.00,0.00,1.75
0,81.51,51.43,13.33,30.46,4.15,2.00,2.50,4.02,8.89,40.00,2.00,11.00,30.15,0.00,56.67,4.97,0.00,0.00,0.00,0.00,11.60,0.00,0.00,0.66,22.48,0.00,4.44,2.67,12.89,0.00,0.00,1.74
0,80.06,50.00,10.00,30.22,4.95,3.00,3.50,4.53,8.89,40.00,2.00,11.00,30.65,0.00,61.67,4.98,0.00,0.00,0.00,0.00,12.05,0.00,0.00,0.68,22.98,0.00,6.67,2.81,12.71,0.00,0.00,1.68
0,78.76,51.43,10.00,28.85,5.03,3.00,3.50,4.54,8.89,40.00,2.00,11.00,31.59,0.00,63.33,5.26,0.00,0.00,0.00,0.00,12.81,0.00,0.00,0.76,24.33,0.00,8.89,3.05,12.83,0.00,0.00,1.68
0,77.73,51.43,10.00,27.46,5.02,3.00,3.50,4.54,8.89,40.00,2.00,11.00,31.80,0.00,65.00,5.46,0.00,0.00,0.00,0.00,12.66,0.00,0.00,0.75,24.02,0.00,8.89,2.99,12.99,0.00,0.00,1.76
0,77.46,52.86,10.00,28.33,5.02,3.00,3.50,4.54,8.88,40.00,2.00,11.00,31.89,0.00,65.00,5.61,0.00,0.00,0.00,0.00,12.30,0.00,0.00,0.70,24.27,0.00,8.89,2.97,13.07,0.00,0.00,1.78
0,76.87,52.86,10.00,27.30,5.01,3.00,3.50,4.54,8.89,40.00,2.00,11.00,32.05,0.00,65.00,5.78,0.00,0.00,0.00,0.00,12.26,0.00,0.00,0.70,23.96,0.00,8.89,2.86,12.87,0.00,0.00,1.78
0,77.09,52.86,10.00,27.22,5.01,3.00,3.50,4.54,8.90,40.00,2.00,11.00,30.95,0.00,61.67,5.63,0.00,0.00,0.00,0.00,12.38,0.00,0.00,0.70,23.23,0.00,8.89,2.76,13.05,0.00,0.00,1.79
0,74.64,50.00,6.67,25.63,5.00,3.00,3.50,4.54,8.90,40.00,2.00,11.00,30.45,0.00,60.00,5.55,0.00,0.00,0.00,0.00,13.06,0.00,0.00,0.75,23.45,0.00,8.89,2.76,13.24,0.00,0.00,1.77
0,74.26,51.43,6.67,25.48,4.99,3.00,3.50,4.54,8.90,40.00,2.00,11.00,30.19,0.00,61.67,5.42,0.00,0.00,0.00,0.00,13.85,0.00,0.00,0.86,24.77,0.00,11.11,3.02,13.35,0.00,0.00,1.83
0,74.41,51.43,6.67,24.13,5.24,3.00,3.50,4.58,8.91,40.00,2.00,11.00,30.70,0.00,61.67,5.75,0.00,0.00,0.00,0.00,13.80,0.00,0.00,0.88,25.48,0.00,15.56,3.30,15.68,6.67,0.00,4.49
0,74.47,51.43,6.67,24.11,6.24,4.00,4.50,5.17,8.89,40.00,2.00,11.00,33.15,0.00,61.67,7.42,0.00,0.00,0.00,0.00,15.22,0.00,0.00,1.18,27.50,0.00,22.22,3.82,20.21,13.33,8.33,10.44
0,75.92,50.00,10.00,26.80,8.32,5.00,6.00,7.58,7.40,33.33,1.50,9.07,34.36,0.00,60.00,8.15,0.00,0.00,0.00,0.00,15.91,0.00,0.00,1.25,27.67,0.00,22.22,3.82,20.81,13.33,8.33,10.99
1,81.10,55.71,26.67,28.28,8.45,5.00,6.00,7.61,6.27,26.67,1.50,7.84,34.85,0.00,61.67,8.27,0.00,0.00,0.00,0.00,17.65,0.00,0.00,1.92,30.90,4.44,26.67,5.30,22.67,16.67,8.33,11.25
1,83.16,54.29,33.33,30.41,8.45,5.00,6.00,7.61,5.23,20.00,1.50,6.87,38.41,5.00,63.33,12.44,0.00,0.00,0.00,0.00,20.77,0.00,0.00,3.03,35.06,8.89,33.33,8.78,30.42,26.67,25.00,25.00
1,87.87,57.14,36.67,34.36,8.44,5.00,6.00,7.61,5.16,20.00,1.50,6.86,45.04,15.00,65.00,18.57,0.00,0.00,0.00,0.00,22.71,0.00,0.00,3.52,39.80,13.33,40.00,12.74,36.86,36.67,41.67,42.41
1,87.98,57.14,36.67,34.00,8.45,5.00,6.00,7.61,5.16,20.00,1.50,6.86,48.24,25.00,70.00,23.64,0.00,0.00,0.00,0.00,23.75,0.00,0.00,3.78,42.67,15.56,48.89,14.95,38.49,36.67,41.67,44.25
1,95.62,61.43,46.67,40.67,8.44,5.00,6.00,7.61,5.16,20.00,1.50,6.86,54.12,35.00,68.33,31.18,0.00,0.00,0.00,0.00,26.94,3.33,5.00,4.66,45.70,17.78,55.56,15.90,42.95,43.33,50.00,50.33
1,97.49,62.86,46.67,41.41,8.44,5.00,6.00,7.61,5.17,20.00,1.50,6.86,56.51,45.00,66.67,32.46,0.00,0.00,0.00,0.00,31.07,16.67,5.00,6.65,46.53,17.78,60.00,16.44,43.66,43.33,50.00,50.70
1,105.28,68.57,63.33,47.58,8.44,5.00,6.00,7.61,4.60,16.67,1.50,6.62,58.56,50.00,71.67,34.67,0.00,0.00,0.00,0.00,32.49,16.67,5.00,6.99,49.74,24.44,66.67,17.83,47.75,50.00,58.33,54.60
1,103.54,68.57,63.33,46.86,8.44,5.00,6.00,7.61,3.07,10.00,1.00,4.32,61.67,60.00,71.67,36.60,0.00,0.00,0.00,0.00,35.35,20.00,5.00,8.57,51.46,26.67,71.11,19.27,54.78,63.33,83.33,64.54
1,104.83,70.00,70.00,46.33,7.15,4.50,5.00,6.82,0.74,0.00,0.00,0.37,63.18,65.00,70.00,38.87,0.00,0.00,0.00,0.00,37.18,20.00,5.00,9.40,53.34,26.67,73.33,20.14,59.66,70.00,100.00,70.51
1,107.10,72.86,76.67,46.49,5.19,3.50,3.50,3.93,0.45,0.00,0.00,0.01,67.24,70.00,75.00,42.41,0.00,0.00,0.00,0.00,39.48,20.00,5.00,9.84,55.45,26.67,77.78,20.65,64.87,76.67,116.67,78.36
1,111.12,74.29,83.33,49.94,4.04,2.00,2.50,3.12,0.44,0.00,0.00,0.01,69.55,75.00,73.33,44.52,0.00,0.00,0.00,0.00,42.13,26.67,5.00,10.96,56.91,26.67,82.22,21.30,65.76,76.67,116.67,78.94
1,113.42,77.14,86.67,51.68,3.91,2.00,2.50,3.08,0.44,0.00,0.00,0.01,69.75,75.00,75.00,44.60,0.00,0.00,0.00,0.00,42.02,26.67,5.00,10.96,57.59,26.67,84.44,21.26,68.00,86.67,116.67,80.40
1,112.18,75.71,83.33,51.59,3.92,2.00,2.50,3.08,0.45,0.00,0.00,0.01,72.49,80.00,73.33,46.12,0.00,0.00,0.00,0.00,44.29,26.67,5.00,11.26,59.32,26.67,91.11,21.76,69.35,86.67,116.67,82.01
1,114.86,75.71,86.67,53.00,3.92,2.00,2.50,3.08,0.47,0.00,0.00,0.01,75.56,95.00,80.00,48.59,0.00,0.00,0.00,0.00,46.71,30.00,5.00,11.88,61.12,26.67,95.56,22.60,71.45,90.00,116.67,83.00
1,118.78,80.00,90.00,55.14,3.93,2.00,2.50,3.08,1.49,3.33,0.00,0.35,77.58,95.00,85.00,49.22,0.00,0.00,0.00,0.00,48.76,33.33,5.00,12.13,61.58,26.67,95.56,22.71,73.57,93.33,116.67,84.68
1,121.91,82.86,100.00,57.47,3.95,2.00,2.50,3.08,3.79,13.33,1.00,4.23,80.02,95.00,88.33,50.34,0.00,0.00,0.00,0.00,51.12,36.67,5.00,12.66,63.91,28.89,100.00,23.31,75.19,96.67,116.67,85.20
1,120.54,81.43,100.00,57.01,3.96,2.00,2.50,3.08,4.70,20.00,1.00,5.46,83.29,105.00,90.00,54.55,0.00,0.00,0.00,0.00,52.66,36.67,5.00,13.08,67.40,31.11,106.67,25.30,76.88,103.33,116.67,86.95
1,125.68,82.86,103.33,59.34,3.96,2.00,2.50,3.08,4.93,20.00,1.00,5.57,88.97,110.00,95.00,59.88,0.00,0.00,0.00,0.00,55.49,43.33,10.00,14.59,68.95,33.33,111.11,26.20,81.45,106.67,125.00,94.20
1,127.98,85.71,106.67,62.31,3.77,2.00,2.50,3.06,4.93,20.00,1.00,5.57,90.89,110.00,100.00,60.42,0.00,0.00,0.00,0.00,58.86,50.00,10.00,15.75,70.07,33.33,113.33,26.70,81.01,103.33,125.00,93.66
1,131.09,90.00,116.67,62.99,2.93,1.50,1.50,2.56,4.94,20.00,1.00,5.57,89.67,110.00,100.00,59.35,0.00,0.00,0.00,0.00,58.14,50.00,10.00,15.63,69.08,35.56,106.67,26.38,77.94,96.67,116.67,87.00
1,132.92,91.43,120.00,63.36,0.77,0.00,0.00,0.25,5.17,20.00,1.00,5.63,93.06,120.00,103.33,61.89,0.00,0.00,0.00,0.00,58.66,53.33,10.00,15.88,71.77,37.78,111.11,27.58,78.52,100.00,125.00,88.58
1,132.24,88.57,116.67,67.88,0.49,0.00,0.00,0.01,6.69,26.67,1.50,7.61,93.16,120.00,103.33,61.44,0.00,0.00,0.00,0.00,59.67,53.33,10.00,15.98,72.15,37.78,111.11,29.04,78.69,103.33,125.00,89.50
1,131.49,88.57,110.00,68.93,2.36,1.00,1.00,2.06,8.79,33.33,2.50,11.39,95.64,120.00,110.00,61.13,0.00,0.00,0.00,0.00,58.51,56.67,10.00,15.09,70.02,33.33,106.67,27.59,74.62,93.33,108.33,79.75
1,128.72,87.14,110.00,67.49,3.71,2.00,2.50,3.26,8.92,33.33,2.50,11.44,92.19,115.00,110.00,58.07,0.00,0.00,0.00,0.00,60.06,60.00,10.00,16.27,68.08,33.33,106.67,25.34,73.52,93.33,108.33,72.38
1,130.43,88.57,110.00,68.17,3.86,2.00,2.50,3.34,8.92,33.33,2.50,11.44,89.78,110.00,110.00,51.27,0.00,0.00,0.00,0.00,59.05,60.00,10.00,15.90,65.68,31.11,102.22,22.52,71.62,96.67,100.00,66.10
1,129.63,88.57,110.00,67.92,3.85,2.00,2.50,3.34,8.92,33.33,2.50,11.44,84.75,95.00,111.67,43.69,0.00,0.00,0.00,0.00,61.44,66.67,15.00,16.95,64.41,28.89,102.22,21.77,68.90,93.33,91.67,61.50
1,128.69,87.14,110.00,66.22,3.85,2.00,2.50,3.34,8.92,33.33,2.50,11.44,84.77,90.00,113.33,42.76,0.00,0.00,0.00,0.00,59.11,60.00,10.00,15.39,65.08,28.89,108.89,21.84,68.97,93.33,91.67,61.32
1,127.32,87.14,100.00,65.45,3.84,2.00,2.50,3.34,8.93,33.33,2.50,11.44,83.65,80.00,111.67,41.32,0.00,0.00,0.00,0.00,58.66,60.00,10.00,15.15,62.79,22.22,102.22,20.62,66.85,86.67,83.33,57.64
1,126.88,85.71,93.33,65.11,3.85,2.00,2.50,3.34,8.93,33.33,2.50,11.44,81.29,70.00,110.00,40.00,0.00,0.00,0.00,0.00,57.31,56.67,10.00,14.07,61.29,20.00,100.00,19.61,60.93,80.00,58.33,48.24
1,129.85,85.71,96.67,66.88,3.85,2.00,2.50,3.34,8.93,33.33,2.50,11.44,82.35,80.00,110.00,40.22,0.00,0.00,0.00,0.00,57.04,56.67,10.00,13.43,60.17,20.00,97.78,18.79,57.61,76.67,41.67,43.76
1,129.25,84.29,90.00,68.62,3.85,2.00,2.50,3.34,8.93,33.33,2.50,11.44,78.94,75.00,106.67,37.05,0.00,0.00,0.00,0.00,55.96,56.67,10.00,13.22,57.82,20.00,93.33,18.19,52.87,73.33,25.00,36.15
1,127.34,87.14,90.00,66.42,4.70,2.50,3.50,3.93,8.93,33.33,2.50,11.44,77.87,70.00,108.33,35.05,0.00,0.00,0.00,0.00,52.33,50.00,10.00,11.96,58.61,20.00,93.33,18.26,54.50,80.00,25.00,37.31
1,127.98,85.71,90.00,67.56,6.87,4.00,5.00,6.29,8.93,33.33,2.50,11.44,79.01,70.00,111.67,35.22,0.00,0.00,0.00,0.00,53.94,50.00,10.00,12.19,57.84,20.00,88.89,18.00,53.33,76.67,25.00,35.99
1,128.86,85.71,90.00,68.01,7.15,4.00,5.00,6.53,8.93,33.33,2.50,11.44,78.07,65.00,111.67,34.56,0.00,0.00,0.00,0.00,53.86,50.00,10.00,12.24,55.65,20.00,80.00,17.54,52.99,73.33,25.00,35.77
1,127.67,87.14,90.00,68.05,7.16,4.00,5.00,6.53,8.90,33.33,2.50,11.44,76.31,55.00,115.00,32.39,0.00,0.00,0.00,0.00,51.91,46.67,10.00,11.87,54.60,20.00,77.78,17.09,52.18,70.00,25.00,34.85
1,129.08,88.57,93.33,68.65,7.17,4.00,5.00,6.53,8.31,30.00,2.50,11.13,76.10,50.00,115.00,31.60,0.00,0.00,0.00,0.00,53.55,50.00,10.00,12.07,54.17,20.00,75.56,16.82,52.43,70.00,25.00,34.85
1,125.39,84.29,83.33,66.42,7.17,4.00,5.00,6.53,6.24,23.33,1.50,7.58,74.41,50.00,111.67,30.87,0.00,0.00,0.00,0.00,52.18,43.33,10.00,12.00,53.66,20.00,75.56,16.59,52.13,66.67,25.00,33.76
1,130.34,88.57,90.00,69.62,7.16,4.00,5.00,6.53,5.03,16.67,1.50,6.29,72.84,45.00,110.00,28.24,0.00,0.00,0.00,0.00,51.69,43.33,10.00,12.02,50.50,15.56,68.89,15.44,50.69,60.00,25.00,32.94
1,132.42,90.00,90.00,72.75,7.16,4.00,5.00,6.53,4.44,13.33,1.50,5.88,71.26,45.00,108.33,26.64,0.00,0.00,0.00,0.00,50.83,43.33,5.00,11.99,49.66,13.33,64.44,14.74,49.38,60.00,16.67,29.09
1,129.50,88.57,86.67,70.74,7.16,4.00,5.00,6.53,4.43,13.33,1.50,5.88,70.89,50.00,108.33,24.67,0.00,0.00,0.00,0.00,50.27,33.33,5.00,11.15,48.06,13.33,60.00,13.85,48.72,60.00,16.67,27.76
1,127.06,84.29,76.67,69.90,7.16,4.00,5.00,6.53,4.45,13.33,1.50,5.88,71.62,50.00,113.33,24.47,0.00,0.00,0.00,0.00,49.51,33.33,5.00,11.13,47.47,13.33,60.00,13.73,48.17,60.00,16.67,27.28
1,128.74,84.29,76.67,70.92,7.16,4.00,5.00,6.53,4.28,13.33,1.50,5.86,70.54,50.00,113.33,24.74,0.00,0.00,0.00,0.00,52.83,43.33,10.00,12.37,47.42,11.11,60.00,13.92,47.31,56.67,8.33,25.82
1,121.34,80.00,66.67,63.04,7.16,4.00,5.00,6.53,3.04,10.00,1.00,4.21,67.63,40.00,115.00,21.98,0.00,0.00,0.00,0.00,51.38,40.00,10.00,12.02,45.12,8.89,62.22,11.52,46.86,53.33,8.33,24.61
1,122.51,78.57,66.67,65.80,5.88,3.50,4.00,5.75,0.75,0.00,0.00,0.37,63.35,40.00,106.67,20.43,0.00,0.00,0.00,0.00,49.61,36.67,10.00,11.64,44.28,8.89,60.00,11.19,45.67,53.33,8.33,22.95
1,121.33,78.57,63.33,64.29,4.26,2.50,2.50,3.47,0.46,0.00,0.00,0.01,61.97,35.00,105.00,19.46,0.00,0.00,0.00,0.00,47.58,33.33,10.00,10.61,42.88,6.67,55.56,10.04,43.45,50.00,0.00,18.61
1,120.21,78.57,63.33,62.25,3.81,2.00,2.50,3.20,0.45,0.00,0.00,0.01,59.66,30.00,105.00,18.37,0.00,0.00,0.00,0.00,48.27,33.33,10.00,10.53,39.79,2.22,48.89,8.49,43.16,46.67,0.00,17.66
1,118.62,77.14,66.67,61.04,3.80,2.00,2.50,3.20,2.34,10.00,1.00,3.12,58.98,30.00,101.67,18.12,0.00,0.00,0.00,0.00,46.43,30.00,5.00,10.21,39.15,2.22,44.44,8.19,42.84,50.00,8.33,18.23
1,117.35,77.14,66.67,58.88,3.80,2.00,2.50,3.20,3.39,16.67,1.00,4.31,58.26,30.00,101.67,17.50,0.00,0.00,0.00,0.00,44.17,20.00,5.00,8.86,38.07,2.22,37.78,8.00,43.25,50.00,8.33,18.12
1,116.42,77.14,66.67,58.29,3.80,2.00,2.50,3.20,4.08,20.00,1.00,4.78,59.01,35.00,105.00,18.08,0.00,0.00,0.00,0.00,42.97,16.67,5.00,8.65,38.01,2.22,40.00,8.01,44.36,50.00,8.33,18.75
1,116.64,78.57,70.00,58.62,3.81,2.00,2.50,3.20,4.21,20.00,1.00,4.81,57.97,35.00,103.33,17.60,0.00,0.00,0.00,0.00,42.34,16.67,5.00,8.64,37.84,2.22,37.78,7.95,44.29,53.33,8.33,19.11
1,113.23,74.29,60.00,57.40,3.81,2.00,2.50,3.20,4.22,20.00,1.00,4.81,54.82,25.00,100.00,15.56,0.00,0.00,0.00,0.00,41.63,16.67,5.00,8.56,38.35,2.22,44.44,7.98,42.00,43.33,8.33,17.72
1,116.32,80.00,73.33,55.73,3.81,2.00,2.50,3.20,4.24,20.00,1.00,4.81,54.45,20.00,101.67,14.64,0.00,0.00,0.00,0.00,41.17,16.67,5.00,8.17,38.02,2.22,42.22,7.74,43.72,46.67,8.33,18.48
1,112.32,72.86,66.67,54.56,3.57,2.00,2.00,3.20,4.25,20.00,1.00,4.81,53.34,20.00,101.67,14.44,0.00,0.00,0.00,0.00,42.85,20.00,5.00,8.51,37.64,2.22,42.22,7.69,42.91,43.33,8.33,17.84
1,111.64,74.29,63.33,53.40,1.37,0.50,0.00,1.63,4.97,23.33,1.00,5.19,54.07,25.00,100.00,14.89,0.00,0.00,0.00,0.00,42.93,20.00,5.00,8.73,37.99,2.22,46.67,8.07,43.93,43.33,8.33,18.15
1,111.80,74.29,63.33,53.25,0.53,0.00,0.00,0.01,6.79,30.00,2.00,8.44,51.46,25.00,93.33,14.35,0.00,0.00,0.00,0.00,42.52,20.00,5.00,8.66,38.36,2.22,46.67,8.10,44.44,43.33,8.33,18.29
1,112.96,74.29,63.33,53.99,1.79,0.50,0.50,0.79,9.20,40.00,3.00,12.67,51.28,25.00,90.00,14.45,0.00,0.00,0.00,0.00,41.42,20.00,5.00,8.51,38.50,2.22,48.89,8.15,43.53,43.33,8.33,18.27
1,111.23,71.43,60.00,52.87,3.15,1.50,2.00,2.74,9.48,40.00,3.00,13.03,50.91,25.00,88.33,14.50,0.00,0.00,0.00,0.00,42.28,23.33,5.00,8.75,38.76,2.22,51.11,8.10,43.62,43.33,8.33,18.23
1,107.34,68.57,56.67,49.19,3.47,2.00,2.00,2.89,9.50,40.00,3.00,13.03,50.45,25.00,90.00,14.24,0.00,0.00,0.00,0.00,39.90,23.33,5.00,8.08,39.28,2.22,53.33,8.29,42.93,43.33,8.33,17.85
1,108.77,68.57,53.33,51.96,3.49,2.00,2.00,2.89,9.49,40.00,3.00,13.03,47.70,20.00,88.33,12.78,0.00,0.00,0.00,0.00,39.77,23.33,5.00,8.09,38.51,2.22,51.11,8.17,41.66,40.00,8.33,18.03
1,104.64,65.71,50.00,47.08,3.49,2.00,2.00,2.89,9.49,40.00,3.00,13.03,46.13,15.00,88.33,11.15,0.00,0.00,0.00,0.00,37.82,20.00,5.00,7.49,37.38,2.22,48.89,7.55,39.76,36.67,8.33,15.69
1,104.01,64.29,56.67,48.03,3.48,2.00,2.00,2.89,9.49,40.00,3.00,13.03,43.11,10.00,81.67,10.06,0.00,0.00,0.00,0.00,37.04,23.33,5.00,6.68,38.22,2.22,48.89,7.62,38.58,36.67,8.33,15.12
1,103.42,62.86,56.67,46.56,3.47,2.00,2.00,2.89,9.48,40.00,3.00,13.03,41.92,10.00,78.33,9.65,0.00,0.00,0.00,0.00,35.70,23.33,5.00,6.10,38.97,2.22,51.11,7.78,39.35,36.67,8.33,15.27
1,103.35,64.29,53.33,47.31,3.48,2.00,2.00,2.89,9.47,40.00,3.00,13.03,40.40,10.00,75.00,8.99,0.00,0.00,0.00,0.00,34.08,16.67,0.00,5.32,36.41,0.00,46.67,6.32,37.99,33.33,8.33,14.45
1,110.31,68.57,63.33,51.48,3.47,2.00,2.00,2.89,9.48,40.00,3.00,13.03,41.22,10.00,76.67,9.07,0.00,0.00,0.00,0.00,33.59,13.33,0.00,5.00,36.36,0.00,42.22,6.38,37.82,33.33,8.33,14.31
1,108.19,68.57,63.33,50.73,4.53,3.00,3.00,3.37,9.48,40.00,3.00,13.03,41.41,10.00,78.33,9.20,0.00,0.00,0.00,0.00,33.54,13.33,0.00,4.95,36.85,0.00,44.44,6.67,37.68,33.33,8.33,14.11
1,107.37,68.57,63.33,47.61,6.30,4.50,5.00,4.38,9.48,40.00,3.00,13.03,40.61,10.00,80.00,8.84,0.00,0.00,0.00,0.00,34.43,13.33,0.00,5.08,38.23,0.00,48.89,7.16,37.39,30.00,8.33,13.64
1,108.84,70.00,66.67,48.40,7.01,5.00,5.50,5.53,9.48,40.00,3.00,13.03,40.94,10.00,78.33,8.96,0.00,0.00,0.00,0.00,33.55,13.33,0.00,4.74,40.30,0.00,51.11,7.98,36.15,30.00,8.33,13.17
1,106.10,68.57,60.00,46.77,7.03,5.00,5.50,5.53,8.18,33.33,2.00,11.85,39.69,10.00,76.67,8.56,0.00,0.00,0.00,0.00,33.74,13.33,0.00,4.80,39.69,0.00,51.11,7.98,35.05,23.33,0.00,12.27
1,104.54,70.00,56.67,45.83,7.03,5.00,5.50,5.53,6.78,26.67,2.00,8.91,39.74,10.00,80.00,8.51,0.00,0.00,0.00,0.00,32.92,13.33,0.00,4.69,38.58,0.00,51.11,7.51,34.56,20.00,0.00,11.80
1,107.30,72.86,60.00,47.19,7.03,5.00,5.50,5.53,5.90,20.00,2.00,8.30,37.84,5.00,75.00,7.77,0.00,0.00,0.00,0.00,32.29,13.33,0.00,4.49,37.14,0.00,44.44,7.05,34.06,23.33,0.00,11.70
1,107.40,70.00,60.00,46.25,7.03,5.00,5.50,5.53,5.73,20.00,2.00,8.24,38.66,5.00,78.33,7.91,0.00,0.00,0.00,0.00,31.37,13.33,0.00,4.29,37.48,0.00,46.67,7.39,33.75,20.00,0.00,11.04
1,110.56,74.29,66.67,48.77,7.02,5.00,5.50,5.53,5.72,20.00,2.00,8.24,38.33,5.00,76.67,7.87,0.00,0.00,0.00,0.00,31.63,13.33,0.00,4.37,36.59,0.00,42.22,7.40,33.88,20.00,0.00,11.13
1,110.80,72.86,63.33,50.54,7.02,5.00,5.50,5.53,5.69,20.00,2.00,8.23,39.42,5.00,80.00,8.30,0.00,0.00,0.00,0.00,32.37,13.33,0.00,4.56,37.11,0.00,42.22,7.54,32.95,16.67,0.00,10.54
1,112.39,74.29,63.33,51.50,7.02,5.00,5.50,5.53,5.68,20.00,2.00,8.23,40.05,5.00,78.33,8.50,0.00,0.00,0.00,0.00,32.31,13.33,0.00,4.59,37.11,0.00,40.00,7.50,31.14,13.33,0.00,9.82
1,112.71,72.86,63.33,52.64,7.02,5.00,5.50,5.53,5.68,20.00,2.00,8.23,38.34,0.00,78.33,7.77,0.00,0.00,0.00,0.00,30.48,10.00,0.00,4.04,36.20,0.00,37.78,7.04,30.06,10.00,0.00,8.98
1,112.31,72.86,63.33,51.86,7.01,5.00,5.50,5.53,4.20,13.33,1.50,7.19,39.04,0.00,80.00,7.79,0.00,0.00,0.00,0.00,30.39,10.00,0.00,4.07,37.65,0.00,40.00,7.51,30.25,13.33,0.00,9.31
1,111.15,75.71,60.00,49.78,7.02,5.00,5.50,5.53,1.35,3.33,0.00,2.62,38.21,0.00,78.33,7.59,0.00,0.00,0.00,0.00,31.79,10.00,0.00,4.28,38.36,0.00,44.44,7.71,29.18,10.00,0.00,8.49
1,112.70,78.57,63.33,50.92,4.88,4.00,4.00,3.23,0.47,0.00,0.00,0.02,38.09,0.00,81.67,7.45,0.00,0.00,0.00,0.00,30.41,3.33,0.00,4.01,38.81,0.00,44.44,8.06,28.71,10.00,0.00,8.02
1,115.06,81.43,66.67,51.78,4.02,3.00,3.50,2.65,0.43,0.00,0.00,0.01,37.95,0.00,81.67,7.30,0.00,0.00,0.00,0.00,31.23,3.33,0.00,4.13,38.67,0.00,44.44,8.00,29.34,10.00,0.00,8.31
1,117.20,84.29,76.67,51.98,4.01,3.00,3.50,2.65,0.44,0.00,0.00,0.01,38.13,0.00,80.00,7.42,0.00,0.00,0.00,0.00,31.59,6.67,0.00,4.24,39.29,0.00,44.44,7.91,28.34,10.00,0.00,7.69
1,115.45,82.86,76.67,50.54,4.01,3.00,3.50,2.65,0.44,0.00,0.00,0.01,41.10,10.00,83.33,8.80,0.00,0.00,0.00,0.00,31.32,6.67,0.00,4.06,40.82,0.00,48.89,8.18,30.34,16.67,0.00,9.26
1,116.52,82.86,73.33,51.40,4.02,3.00,3.50,2.65,2.33,6.67,1.00,3.12,43.60,15.00,88.33,10.51,0.00,0.00,0.00,0.00,31.93,6.67,0.00,4.33,41.42,0.00,51.11,8.81,32.25,20.00,0.00,10.34
1,117.91,84.29,73.33,53.33,4.02,3.00,3.50,2.65,3.64,13.33,1.00,4.80,44.01,15.00,88.33,10.81,0.00,0.00,0.00,0.00,32.10,6.67,0.00,4.28,41.20,0.00,48.89,8.85,33.43,26.67,0.00,11.17
1,118.25,82.86,70.00,52.36,4.02,3.00,3.50,2.65,3.79,13.33,1.00,4.91,44.13,15.00,88.33,10.85,0.00,0.00,0.00,0.00,32.87,6.67,0.00,4.42,41.34,0.00,46.67,8.80,34.71,30.00,0.00,12.05
1,115.53,81.43,70.00,52.73,4.02,3.00,3.50,2.65,4.16,16.67,1.00,5.03,43.04,15.00,86.67,10.58,0.00,0.00,0.00,0.00,34.57,13.33,0.00,5.30,41.69,0.00,44.44,9.03,35.46,30.00,0.00,12.95
1,115.57,81.43,70.00,51.15,3.15,2.00,2.50,2.20,4.17,16.67,1.00,5.03,44.55,15.00,88.33,11.21,0.00,0.00,0.00,0.00,34.74,13.33,0.00,5.40,42.91,2.22,48.89,9.49,36.37,33.33,0.00,13.83
1,115.37,82.86,70.00,50.54,2.27,1.00,1.00,1.73,4.18,16.67,1.00,5.03,46.49,20.00,86.67,12.52,0.00,0.00,0.00,0.00,36.96,20.00,5.00,6.52,42.53,2.22,46.67,9.27,35.28,30.00,0.00,13.30
1,118.18,84.29,73.33,52.21,0.50,0.00,0.00,0.01,4.49,16.67,1.00,5.09,46.75,20.00,88.33,12.53,0.00,0.00,0.00,0.00,37.21,23.33,5.00,6.91,42.38,2.22,51.11,9.05,35.79,30.00,0.00,13.53
1,118.41,82.86,70.00,52.21,0.46,0.00,0.00,0.01,5.51,20.00,1.50,5.66,47.73,20.00,88.33,13.19,0.00,0.00,0.00,0.00,36.57,23.33,5.00,6.81,42.37,2.22,51.11,9.00,36.60,30.00,0.00,14.01
1,119.93,81.43,70.00,53.71,0.46,0.00,0.00,0.01,7.44,26.67,2.50,9.35,47.80,20.00,88.33,13.08,0.00,0.00,0.00,0.00,37.81,23.33,5.00,7.13,42.22,2.22,48.89,9.01,37.71,36.67,0.00,14.70
1,117.88,77.14,66.67,52.80,1.58,0.50,0.50,0.59,8.12,30.00,2.50,10.26,47.15,20.00,88.33,12.66,0.00,0.00,0.00,0.00,38.56,23.33,5.00,7.33,43.26,2.22,48.89,9.48,37.77,40.00,0.00,14.70
1,113.62,75.71,60.00,49.98,2.40,1.00,1.00,1.75,8.14,30.00,2.50,10.26,46.56,20.00,86.67,12.68,0.00,0.00,0.00,0.00,38.34,23.33,5.00,7.22,42.50,2.22,48.89,8.92,37.90,40.00,0.00,15.00
1,114.06,78.57,60.00,49.15,2.51,1.00,1.00,1.77,8.14,30.00,2.50,10.26,46.95,20.00,90.00,12.86,0.00,0.00,0.00,0.00,39.10,23.33,5.00,7.38,43.09,2.22,51.11,9.11,38.52,40.00,0.00,15.23
1,112.20,75.71,56.67,49.30,2.51,1.00,1.00,1.77,8.14,30.00,2.50,10.26,46.64,20.00,90.00,12.62,0.00,0.00,0.00,0.00,38.12,23.33,5.00,7.26,43.46,2.22,53.33,9.17,40.53,46.67,0.00,16.69
1,111.54,75.71,56.67,48.47,2.51,1.00,1.00,1.77,8.13,30.00,2.50,10.26,46.38,20.00,93.33,12.47,0.00,0.00,0.00,0.00,36.98,23.33,5.00,6.97,43.03,2.22,53.33,9.17,40.42,46.67,0.00,16.52
1,109.25,75.71,56.67,47.32,2.50,1.00,1.00,1.77,8.13,30.00,2.50,10.26,46.93,20.00,93.33,12.57,0.00,0.00,0.00,0.00,37.40,23.33,5.00,7.12,43.02,2.22,51.11,9.27,42.42,50.00,0.00,17.85
1,108.39,77.14,56.67,47.44,2.50,1.00,1.00,1.77,8.13,30.00,2.50,10.26,47.17,20.00,95.00,12.60,0.00,0.00,0.00,0.00,37.04,23.33,5.00,7.08,41.63,2.22,48.89,8.78,44.50,56.67,0.00,18.83
1,109.20,77.14,56.67,47.20,2.49,1.00,1.00,1.77,8.13,30.00,2.50,10.26,47.17,20.00,96.67,12.81,0.00,0.00,0.00,0.00,36.42,23.33,5.00,7.11,40.75,2.22,42.22,8.41,44.78,56.67,0.00,18.91
1,108.92,74.29,53.33,48.80,2.70,1.00,1.00,1.80,8.13,30.00,2.50,10.26,46.75,20.00,90.00,12.82,0.00,0.00,0.00,0.00,36.63,23.33,5.00,7.05,41.62,2.22,51.11,8.53,44.28,56.67,0.00,18.72
1,109.58,74.29,53.33,50.79,4.43,2.00,2.50,3.09,8.14,30.00,2.50,10.26,47.01,20.00,91.67,12.94,0.00,0.00,0.00,0.00,36.93,23.33,5.00,7.10,41.56,2.22,51.11,8.44,44.64,63.33,0.00,18.75
1,104.86,68.57,40.00,48.09,6.83,3.50,4.50,5.04,8.14,30.00,2.50,10.26,45.50,20.00,88.33,12.45,0.00,0.00,0.00,0.00,35.74,20.00,5.00,6.75,40.17,2.22,48.89,8.10,44.71,63.33,0.00,18.77
1,105.73,71.43,40.00,48.90,7.68,4.00,5.00,6.68,8.13,30.00,2.50,10.26,43.39,10.00,85.00,11.77,0.00,0.00,0.00,0.00,35.59,20.00,5.00,6.82,40.65,2.22,48.89,8.58,45.23,63.33,0.00,18.39
1,106.11,74.29,43.33,48.23,7.71,4.00,5.00,6.69,6.82,26.67,1.50,9.08,42.72,5.00,90.00,10.44,0.00,0.00,0.00,0.00,34.62,16.67,5.00,6.76,39.15,2.22,44.44,8.10,42.49,56.67,0.00,16.40
1,104.48,72.86,43.33,45.21,7.71,4.00,5.00,6.69,5.23,20.00,1.50,5.73,42.63,5.00,90.00,10.26,0.00,0.00,0.00,0.00,34.41,16.67,5.00,6.66,38.68,2.22,44.44,7.87,41.69,50.00,0.00,15.76
1,104.37,74.29,43.33,46.32,7.71,4.00,5.00,6.69,4.78,16.67,1.50,5.36,41.40,5.00,86.67,10.01,0.00,0.00,0.00,0.00,33.97,16.67,5.00,6.64,38.47,2.22,44.44,7.86,42.63,53.33,0.00,16.14
1,99.93,74.29,36.67,42.61,7.71,4.00,5.00,6.69,4.46,13.33,1.50,5.25,42.23,5.00,86.67,10.24,0.79,0.50,2.50,1.39,31.46,10.00,5.00,5.63,39.35,2.22,48.89,8.05,41.68,53.33,0.00,14.94
1,99.80,75.71,36.67,42.29,7.72,4.00,5.00,6.69,4.44,13.33,1.50,5.24,40.69,5.00,83.33,9.59,1.81,2.00,2.50,3.75,31.08,10.00,5.00,5.38,36.70,0.00,44.44,7.09,40.62,50.00,0.00,14.46
1,101.29,75.71,36.67,45.38,7.72,4.00,5.00,6.69,4.43,13.33,1.50,5.24,38.35,0.00,78.33,8.32,1.85,2.00,2.50,3.77,29.92,6.67,0.00,5.31,34.69,0.00,37.78,6.62,40.35,50.00,0.00,14.04
1,98.82,74.29,33.33,42.99,7.72,4.00,5.00,6.69,4.15,13.33,1.50,5.18,38.35,0.00,78.33,8.33,1.85,2.00,2.50,3.77,26.90,0.00,0.00,3.54,33.87,0.00,33.33,6.41,39.94,50.00,0.00,13.98
1,97.53,77.14,33.33,42.59,7.72,4.00,5.00,6.69,3.93,13.33,1.50,5.13,37.67,0.00,80.00,7.81,1.85,2.00,2.50,3.77,27.68,0.00,0.00,3.67,33.26,0.00,33.33,6.10,38.89,50.00,0.00,13.49
1,95.54,78.57,30.00,41.40,7.70,4.00,5.00,6.69,2.25,6.67,0.50,3.65,37.37,0.00,78.33,7.79,1.85,2.00,2.50,3.77,27.24,0.00,0.00,3.50,33.39,0.00,33.33,6.07,38.99,50.00,0.00,14.09
1,98.50,82.86,33.33,44.17,7.69,4.00,5.00,6.69,0.49,0.00,0.00,0.02,37.03,0.00,75.00,7.77,1.85,2.00,2.50,3.77,27.24,0.00,0.00,3.50,33.46,0.00,37.78,5.90,38.43,43.33,0.00,13.89
1,98.56,80.00,36.67,44.87,5.95,3.00,4.00,4.99,0.47,0.00,0.00,0.01,37.46,0.00,81.67,7.54,1.85,2.00,2.50,3.77,27.37,0.00,0.00,3.51,32.70,0.00,35.56,5.84,37.31,40.00,0.00,12.96
1,95.41,78.57,33.33,42.75,5.67,3.00,4.00,4.92,0.47,0.00,0.00,0.01,35.97,0.00,76.67,7.07,1.85,2.00,2.50,3.77,26.58,0.00,0.00,3.35,31.05,0.00,31.11,5.47,37.39,43.33,0.00,13.19
1,97.78,80.00,36.67,43.81,5.66,3.00,4.00,4.92,1.78,3.33,0.50,1.19,36.23,0.00,78.33,7.03,1.85,2.00,2.50,3.77,26.63,0.00,0.00,3.29,31.13,0.00,28.89,5.41,37.59,46.67,0.00,12.89
1,97.77,81.43,40.00,42.21,5.67,3.00,4.00,4.92,2.73,10.00,1.00,3.57,35.43,0.00,73.33,6.96,1.85,2.00,2.50,3.77,27.56,0.00,0.00,3.39,30.93,0.00,31.11,5.37,37.00,43.33,0.00,12.35
1,96.02,78.57,36.67,41.50,5.68,3.00,4.00,4.92,2.86,10.00,1.00,3.61,35.44,0.00,70.00,7.05,1.85,2.00,2.50,3.77,27.44,0.00,0.00,3.28,31.82,0.00,33.33,5.62,34.79,40.00,0.00,11.13
1,96.11,77.14,36.67,41.24,5.68,3.00,4.00,4.92,2.85,10.00,1.00,3.60,34.76,0.00,68.33,6.89,1.85,2.00,2.50,3.77,26.95,0.00,0.00,3.22,33.31,0.00,40.00,5.98,33.60,40.00,0.00,10.65
1,95.96,75.71,36.67,42.79,5.68,3.00,4.00,4.92,2.85,10.00,1.00,3.61,34.91,0.00,66.67,6.75,1.85,2.00,2.50,3.77,26.86,0.00,0.00,2.96,32.86,0.00,40.00,6.02,33.06,36.67,0.00,10.45
1,98.31,78.57,40.00,44.21,5.50,3.00,4.00,4.90,3.50,13.33,1.00,3.98,35.87,0.00,70.00,6.90,1.85,2.00,2.50,3.77,25.43,0.00,0.00,2.77,32.54,0.00,33.33,5.98,33.69,40.00,0.00,10.66
1,95.40,75.71,40.00,40.10,4.06,2.00,3.00,3.70,5.48,20.00,2.00,7.33,34.62,0.00,66.67,6.67,1.85,2.00,2.50,3.77,24.24,0.00,0.00,2.53,30.87,0.00,26.67,5.68,33.73,33.33,0.00,10.89
1,99.33,77.14,46.67,42.77,3.32,2.00,2.00,2.74,5.90,23.33,2.00,7.72,36.10,0.00,70.00,7.23,1.85,2.00,2.50,3.77,24.19,0.00,0.00,2.52,31.22,0.00,26.67,5.77,33.75,33.33,0.00,10.86
1,103.06,80.00,53.33,45.55,1.32,1.00,1.00,0.35,5.92,23.33,2.00,7.73,37.14,0.00,75.00,7.29,1.85,2.00,2.50,3.77,25.11,0.00,0.00,2.56,30.54,0.00,26.67,5.33,33.23,30.00,0.00,10.62
1,100.93,75.71,50.00,44.13,1.26,1.00,1.00,0.34,5.92,23.33,2.00,7.73,37.32,0.00,71.67,7.76,1.85,2.00,2.50,3.77,24.62,0.00,0.00,2.50,30.17,0.00,31.11,5.10,32.93,30.00,0.00,10.59
1,102.97,77.14,53.33,44.42,1.25,1.00,1.00,0.34,5.93,23.33,2.00,7.73,36.17,0.00,68.33,7.10,1.85,2.00,2.50,3.77,24.37,0.00,0.00,2.45,31.05,0.00,31.11,5.12,32.26,30.00,0.00,10.44
1,106.48,78.57,60.00,48.74,1.26,1.00,1.00,0.34,5.93,23.33,2.00,7.73,36.36,0.00,70.00,6.98,1.85,2.00,2.50,3.77,24.43,0.00,0.00,2.51,32.25,0.00,35.56,5.30,31.76,30.00,0.00,10.54
1,107.92,77.14,60.00,49.30,1.26,1.00,1.00,0.34,5.91,23.33,2.00,7.73,37.03,0.00,71.67,7.24,1.56,2.00,0.00,3.77,24.14,0.00,0.00,2.49,30.62,0.00,33.33,4.81,30.94,30.00,0.00,10.27
1,112.07,77.14,63.33,53.11,1.54,1.00,1.00,0.39,5.89,23.33,2.00,7.73,36.34,0.00,70.00,7.03,0.28,0.00,0.00,0.83,23.94,0.00,0.00,2.43,31.19,0.00,37.78,4.84,30.62,26.67,0.00,9.80
1,115.65,81.43,70.00,54.17,3.93,2.00,2.50,2.71,5.89,23.33,2.00,7.73,36.41,0.00,73.33,7.02,0.01,0.00,0.00,0.00,24.72,0.00,0.00,2.59,31.63,0.00,37.78,4.86,30.63,26.67,0.00,10.10
1,112.18,77.14,66.67,51.84,5.70,3.00,3.50,5.19,5.89,23.33,2.00,7.73,37.96,0.00,76.67,7.91,0.00,0.00,0.00,0.00,24.48,0.00,0.00,2.70,32.25,0.00,37.78,5.09,31.62,26.67,0.00,10.74
1,112.79,75.71,70.00,52.29,5.73,3.00,3.50,5.20,5.90,23.33,2.00,7.73,38.58,0.00,76.67,8.24,0.00,0.00,0.00,0.00,24.35,0.00,0.00,2.66,31.28,0.00,35.56,4.94,31.03,26.67,0.00,10.47
1,114.12,74.29,70.00,53.12,5.73,3.00,3.50,5.20,5.90,23.33,2.00,7.73,37.84,0.00,73.33,8.07,0.00,0.00,0.00,0.00,24.24,0.00,0.00,2.72,30.90,0.00,35.56,4.81,31.73,26.67,0.00,10.47
1,113.15,71.43,70.00,52.02,5.73,3.00,3.50,5.20,5.90,23.33,2.00,7.73,37.82,0.00,75.00,8.07,0.00,0.00,0.00,0.00,22.81,0.00,0.00,2.42,29.84,0.00,31.11,4.52,30.11,23.33,0.00,9.24
1,110.66,70.00,66.67,49.73,5.73,3.00,3.50,5.20,5.89,23.33,2.00,7.73,38.04,0.00,71.67,8.32,0.00,0.00,0.00,0.00,22.90,0.00,0.00,2.43,30.01,0.00,31.11,4.51,29.80,23.33,0.00,8.94
1,110.81,68.57,66.67,50.01,5.73,3.00,3.50,5.20,5.90,23.33,2.00,7.73,38.22,0.00,68.33,8.39,0.00,0.00,0.00,0.00,22.35,0.00,0.00,2.40,31.46,0.00,33.33,4.86,30.26,20.00,0.00,9.19
1,108.70,67.14,60.00,50.26,5.73,3.00,3.50,5.20,5.89,23.33,2.00,7.73,39.31,0.00,71.67,8.61,0.00,0.00,0.00,0.00,22.41,0.00,0.00,2.37,31.70,0.00,33.33,4.79,29.20,13.33,0.00,8.73
1,108.27,65.71,56.67,50.73,5.73,3.00,3.50,5.20,3.83,16.67,1.00,4.26,40.01,0.00,76.67,8.62,0.00,0.00,0.00,0.00,22.79,0.00,0.00,2.48,32.61,0.00,33.33,5.22,30.10,16.67,0.00,9.23
1,109.65,65.71,56.67,51.41,5.73,3.00,3.50,5.20,3.51,13.33,1.00,4.13,40.89,0.00,78.33,9.07,0.00,0.00,0.00,0.00,22.56,0.00,0.00,2.54,33.07,0.00,35.56,5.25,30.41,16.67,0.00,9.34
1,113.73,68.57,60.00,53.15,5.72,3.00,3.50,5.20,4.65,20.00,1.50,5.67,41.53,0.00,81.67,9.37,0.00,0.00,0.00,0.00,22.41,0.00,0.00,2.49,30.92,0.00,31.11,4.64,29.41,10.00,0.00,8.57
1,116.91,71.43,66.67,55.36,5.73,3.00,3.50,5.20,6.56,30.00,2.00,8.27,41.75,0.00,81.67,9.45,0.00,0.00,0.00,0.00,22.78,0.00,0.00,2.61,32.09,0.00,33.33,4.89,29.82,10.00,0.00,8.64
1,115.87,70.00,66.67,55.03,5.72,3.00,3.50,5.20,6.95,33.33,2.00,8.90,41.74,0.00,81.67,9.43,0.00,0.00,0.00,0.00,23.07,0.00,0.00,2.68,31.75,0.00,33.33,5.14,29.58,6.67,0.00,8.42
1,117.76,72.86,70.00,56.04,5.73,3.00,3.50,5.20,5.32,30.00,1.00,6.00,44.86,10.00,85.00,11.64,0.00,0.00,0.00,0.00,23.67,0.00,0.00,2.78,32.12,0.00,35.56,5.40,28.04,6.67,0.00,7.77
1,114.04,71.43,63.33,53.21,5.23,2.50,2.50,5.09,4.47,23.33,1.00,4.99,45.54,10.00,85.00,11.83,0.00,0.00,0.00,0.00,24.01,0.00,0.00,2.88,33.05,0.00,37.78,5.68,28.44,6.67,0.00,7.95
1,112.85,68.57,63.33,52.39,4.93,2.00,2.50,4.87,5.19,30.00,1.00,5.51,44.88,10.00,80.00,11.66,0.00,0.00,0.00,0.00,23.73,0.00,0.00,2.86,32.91,0.00,35.56,5.61,28.77,6.67,0.00,8.05
1,110.99,68.57,56.67,51.17,6.80,3.00,3.50,6.93,7.26,36.67,2.00,9.10,44.30,10.00,76.67,11.54,0.00,0.00,0.00,0.00,23.53,0.00,0.00,2.79,32.26,0.00,31.11,5.53,28.42,6.67,0.00,7.91
1,110.77,71.43,56.67,51.72,8.71,4.00,5.00,9.13,7.39,36.67,2.00,9.15,45.68,10.00,85.00,11.98,0.00,0.00,0.00,0.00,24.51,0.00,0.00,2.91,32.55,0.00,35.56,5.67,28.94,6.67,0.00,8.14
1,108.91,71.43,50.00,50.92,8.94,4.00,5.00,9.29,7.39,36.67,2.00,9.15,46.14,10.00,85.00,12.26,0.00,0.00,0.00,0.00,24.72,0.00,0.00,2.95,31.88,0.00,33.33,5.60,28.95,3.33,0.00,7.92
1,107.53,70.00,50.00,50.20,8.94,4.00,5.00,9.29,7.40,36.67,2.00,9.15,45.24,10.00,83.33,12.03,0.00,0.00,0.00,0.00,24.29,0.00,0.00,2.92,31.83,0.00,35.56,5.71,29.58,3.33,0.00,7.97
1,109.61,71.43,53.33,50.42,8.67,4.00,5.00,9.24,7.40,36.67,2.00,9.15,45.86,10.00,85.00,12.32,0.00,0.00,0.00,0.00,24.57,0.00,0.00,2.91,31.67,0.00,33.33,5.70,29.49,3.33,0.00,7.94
1,106.42,68.57,50.00,48.27,6.74,3.00,4.00,7.07,7.41,36.67,2.00,9.15,48.09,10.00,85.00,13.36,0.00,0.00,0.00,0.00,24.71,0.00,0.00,3.05,32.50,0.00,33.33,5.97,29.08,3.33,0.00,7.66
1,110.21,71.43,53.33,51.53,4.60,2.00,2.50,4.46,7.41,36.67,2.00,9.15,47.52,10.00,83.33,13.09,0.00,0.00,0.00,0.00,23.46,0.00,0.00,2.69,33.42,0.00,40.00,6.31,29.06,6.67,0.00,7.63
1,110.97,72.86,53.33,51.02,4.47,2.00,2.50,4.43,7.39,36.67,2.00,9.15,45.98,10.00,80.00,12.68,0.00,0.00,0.00,0.00,23.76,0.00,0.00,2.68,33.97,0.00,40.00,6.34,29.32,6.67,0.00,7.81
1,113.91,72.86,56.67,55.68,4.86,2.50,3.00,4.51,7.39,36.67,2.00,9.15,45.64,10.00,83.33,12.20,0.00,0.00,0.00,0.00,25.61,3.33,0.00,3.15,35.21,0.00,42.22,6.64,29.60,10.00,0.00,7.88
1,118.94,78.57,66.67,58.16,6.34,3.00,5.00,5.96,7.40,36.67,2.00,9.15,47.64,10.00,88.33,12.70,0.00,0.00,0.00,0.00,26.29,3.33,0.00,3.34,36.21,0.00,42.22,6.85,30.61,10.00,0.00,8.62
1,121.41,82.86,70.00,59.89,6.92,3.50,5.00,6.40,7.40,36.67,2.00,9.15,48.23,10.00,88.33,12.97,0.00,0.00,0.00,0.00,27.18,3.33,0.00,3.50,37.67,0.00,44.44,7.35,31.10,10.00,0.00,8.98
1,120.09,82.86,66.67,59.19,6.93,3.50,5.00,6.40,7.40,36.67,2.00,9.15,48.29,10.00,90.00,13.00,0.00,0.00,0.00,0.00,27.64,3.33,0.00,3.54,36.94,0.00,46.67,7.31,30.92,10.00,0.00,8.77
1,124.79,88.57,76.67,60.40,6.93,3.50,5.00,6.40,7.39,36.67,2.00,9.15,47.56,10.00,86.67,13.07,0.00,0.00,0.00,0.00,27.94,3.33,0.00,3.61,36.75,0.00,46.67,7.26,31.59,10.00,0.00,9.01
1,123.59,88.57,76.67,59.84,6.92,3.50,5.00,6.40,7.39,36.67,2.00,9.15,45.91,10.00,80.00,12.63,0.00,0.00,0.00,0.00,27.43,3.33,0.00,3.52,35.28,0.00,42.22,6.69,30.04,6.67,0.00,8.17
1,122.66,90.00,76.67,59.02,6.92,3.50,5.00,6.40,7.39,36.67,2.00,9.15,46.15,10.00,83.33,12.60,0.00,0.00,0.00,0.00,27.54,3.33,0.00,3.49,34.21,0.00,37.78,6.58,30.20,10.00,0.00,8.32
1,122.93,91.43,73.33,60.45,6.92,3.50,5.00,6.40,7.07,33.33,1.50,9.15,44.99,10.00,80.00,11.90,0.00,0.00,0.00,0.00,27.55,3.33,0.00,3.54,33.92,0.00,35.56,6.39,30.80,10.00,0.00,8.48
1,120.02,87.14,66.67,59.23,6.92,3.50,5.00,6.40,4.84,23.33,1.00,6.42,46.32,10.00,81.67,12.64,0.00,0.00,0.00,0.00,27.21,3.33,0.00,3.45,33.66,0.00,33.33,6.25,30.95,10.00,0.00,8.60
1,117.63,84.29,66.67,59.72,6.92,3.50,5.00,6.40,3.69,16.67,1.00,4.34,46.48,10.00,83.33,12.72,0.00,0.00,0.00,0.00,27.10,3.33,0.00,3.57,33.84,0.00,35.56,6.37,31.49,13.33,0.00,8.77
1,116.71,84.29,63.33,57.81,6.92,3.50,5.00,6.40,3.42,13.33,1.00,4.19,43.58,0.00,81.67,10.59,0.00,0.00,0.00,0.00,27.19,3.33,0.00,3.56,34.63,0.00,35.56,6.30,31.89,13.33,0.00,8.89
1,119.34,85.71,66.67,58.98,6.92,3.50,5.00,6.40,3.42,13.33,1.00,4.19,42.64,0.00,78.33,10.36,0.00,0.00,0.00,0.00,27.14,3.33,0.00,3.49,34.30,0.00,35.56,6.11,31.20,13.33,0.00,8.65
1,116.95,85.71,60.00,58.56,6.92,3.50,5.00,6.40,2.81,10.00,1.00,3.75,42.51,0.00,83.33,10.05,0.00,0.00,0.00,0.00,26.65,3.33,0.00,3.41,33.93,0.00,35.56,6.02,31.48,13.33,0.00,8.63
1,118.58,87.14,60.00,59.56,5.63,3.00,4.00,5.62,0.72,0.00,0.00,0.37,41.81,0.00,83.33,9.59,0.00,0.00,0.00,0.00,26.31,3.33,0.00,3.37,33.33,0.00,35.56,5.92,31.79,13.33,0.00,8.88
1,118.83,87.14,63.33,58.46,3.57,2.00,2.50,2.53,0.44,0.00,0.00,0.01,40.92,0.00,76.67,9.52,0.00,0.00,0.00,0.00,25.70,3.33,0.00,3.20,32.92,0.00,31.11,5.85,31.12,13.33,0.00,8.81
1,119.09,87.14,63.33,59.15,2.92,1.50,2.50,1.98,1.92,6.67,1.00,2.63,40.21,0.00,78.33,9.05,0.00,0.00,0.00,0.00,25.57,3.33,0.00,3.31,33.39,0.00,33.33,6.02,32.10,20.00,0.00,9.80
1,118.30,87.14,66.67,58.59,2.90,1.50,2.50,1.98,3.58,16.67,1.00,4.76,39.77,0.00,75.00,9.00,0.00,0.00,0.00,0.00,25.86,3.33,0.00,3.26,33.05,0.00,28.89,5.84,31.71,20.00,0.00,9.75
1,116.08,82.86,60.00,57.74,2.91,1.50,2.50,1.98,4.05,20.00,1.00,5.07,39.60,0.00,76.67,8.79,0.00,0.00,0.00,0.00,26.51,3.33,0.00,3.39,33.70,0.00,28.89,6.05,31.49,23.33,0.00,9.72
1,115.23,84.29,63.33,55.09,2.89,1.50,2.50,1.98,4.24,20.00,1.00,5.11,38.60,0.00,78.33,8.03,0.00,0.00,0.00,0.00,26.95,3.33,0.00,3.53,33.75,0.00,28.89,5.89,31.33,23.33,0.00,9.64
1,114.57,84.29,70.00,53.99,2.90,1.50,2.50,1.98,4.53,20.00,1.00,5.18,37.42,0.00,76.67,7.39,0.00,0.00,0.00,0.00,27.78,3.33,0.00,3.83,33.21,0.00,26.67,5.92,31.45,20.00,0.00,9.69
1,113.80,81.43,73.33,53.96,2.91,1.50,2.50,1.98,4.53,20.00,1.00,5.18,38.60,0.00,78.33,7.62,0.00,0.00,0.00,0.00,29.05,3.33,0.00,4.21,34.86,0.00,31.11,6.29,32.98,23.33,0.00,10.53
1,109.87,78.57,70.00,51.14,2.91,1.50,2.50,1.98,4.54,20.00,1.00,5.18,38.55,0.00,73.33,8.08,0.00,0.00,0.00,0.00,28.70,0.00,0.00,4.05,33.95,0.00,31.11,6.22,32.18,23.33,0.00,10.24
1,103.05,74.29,56.67,45.62,1.94,1.00,0.50,1.74,4.56,20.00,1.00,5.18,36.82,0.00,70.00,7.54,0.00,0.00,0.00,0.00,28.20,0.00,0.00,3.99,33.14,0.00,31.11,6.06,31.20,20.00,0.00,9.62
1,101.47,72.86,60.00,44.16,0.46,0.00,0.00,0.01,5.20,23.33,1.00,5.48,37.73,0.00,73.33,8.05,0.00,0.00,0.00,0.00,28.15,0.00,0.00,4.12,32.68,0.00,33.33,5.83,31.93,23.33,0.00,10.04
1,107.89,77.14,66.67,47.46,0.43,0.00,0.00,0.01,6.92,30.00,2.00,8.36,36.76,0.00,73.33,7.65,0.00,0.00,0.00,0.00,29.41,3.33,0.00,4.41,32.43,0.00,31.11,5.74,31.42,23.33,0.00,9.85
1,106.84,74.29,63.33,48.16,1.40,0.50,0.50,0.43,9.30,40.00,3.00,12.50,36.28,0.00,73.33,7.32,0.00,0.00,0.00,0.00,29.11,3.33,0.00,4.67,32.60,0.00,31.11,5.95,31.10,23.33,0.00,9.73
1,109.25,75.71,66.67,50.01,2.10,1.00,1.00,1.30,9.59,40.00,3.00,12.86,37.29,0.00,75.00,7.53,0.00,0.00,0.00,0.00,30.10,3.33,0.00,4.83,33.96,0.00,37.78,6.21,31.74,23.33,0.00,10.14
1,111.27,74.29,70.00,51.61,2.20,1.00,1.00,1.31,9.60,40.00,3.00,12.86,37.82,0.00,76.67,7.78,0.00,0.00,0.00,0.00,30.38,3.33,0.00,5.06,34.52,0.00,40.00,6.27,31.48,20.00,0.00,9.93
1,108.48,72.86,70.00,49.02,2.20,1.00,1.00,1.31,9.60,40.00,3.00,12.86,38.28,0.00,76.67,8.23,0.00,0.00,0.00,0.00,32.16,6.67,0.00,5.37,36.46,2.22,42.22,7.21,32.27,20.00,0.00,10.68
1,111.03,80.00,70.00,48.62,2.19,1.00,1.00,1.31,9.59,40.00,3.00,12.86,36.82,0.00,78.33,7.53,0.00,0.00,0.00,0.00,32.27,6.67,0.00,5.35,37.33,2.22,48.89,7.41,32.55,20.00,0.00,10.77
1,110.51,81.43,70.00,46.87,2.19,1.00,1.00,1.31,9.59,40.00,3.00,12.86,36.60,0.00,75.00,7.45,0.00,0.00,0.00,0.00,32.13,6.67,0.00,5.26,36.48,2.22,48.89,7.16,33.08,23.33,8.33,12.32
1,109.11,78.57,70.00,46.23,2.19,1.00,1.00,1.31,9.59,40.00,3.00,12.86,36.69,0.00,73.33,7.53,0.00,0.00,0.00,0.00,32.37,6.67,0.00,5.36,36.12,2.22,48.89,7.03,33.07,23.33,8.33,12.27
1,107.83,78.57,66.67,45.61,2.19,1.00,1.00,1.31,9.60,40.00,3.00,12.86,38.05,0.00,81.67,7.55,0.00,0.00,0.00,0.00,32.18,6.67,0.00,5.34,35.85,2.22,48.89,6.83,34.15,23.33,8.33,13.06
1,106.85,75.71,66.67,43.82,2.18,1.00,1.00,1.31,9.60,40.00,3.00,12.86,37.97,0.00,80.00,7.67,0.00,0.00,0.00,0.00,32.39,6.67,0.00,5.32,36.00,2.22,46.67,6.93,34.17,23.33,8.33,13.17
1,108.42,77.14,73.33,43.53,2.18,1.00,1.00,1.31,9.60,40.00,3.00,12.86,37.44,0.00,76.67,7.57,0.00,0.00,0.00,0.00,32.17,6.67,0.00,5.30,37.74,2.22,53.33,7.31,33.36,23.33,8.33,12.91
1,106.57,74.29,73.33,43.09,2.87,1.50,1.50,1.54,9.60,40.00,3.00,12.86,37.95,0.00,78.33,7.47,0.00,0.00,0.00,0.00,33.32,6.67,0.00,5.59,37.90,2.22,55.56,7.33,34.94,26.67,8.33,13.35
1,103.93,71.43,73.33,41.90,4.71,2.50,3.50,3.75,9.18,36.67,2.50,12.86,37.56,0.00,76.67,7.51,0.00,0.00,0.00,0.00,32.79,6.67,0.00,5.49,37.29,2.22,53.33,7.18,33.44,23.33,8.33,12.57
1,101.56,67.14,70.00,40.38,5.39,3.00,3.50,4.36,6.83,26.67,2.00,9.01,38.59,0.00,83.33,7.67,0.00,0.00,0.00,0.00,33.14,6.67,0.00,5.63,36.39,2.22,51.11,7.01,34.26,23.33,8.33,12.86
1,107.60,72.86,83.33,42.70,5.41,3.00,3.50,4.36,6.08,20.00,2.00,7.84,38.03,0.00,80.00,7.71,0.00,0.00,0.00,0.00,32.76,6.67,0.00,5.58,36.31,2.22,48.89,6.91,33.77,20.00,8.33,12.89
1,108.44,72.86,86.67,43.88,5.40,3.00,3.50,4.36,5.80,20.00,2.00,7.76,38.87,0.00,80.00,8.11,0.00,0.00,0.00,0.00,34.75,13.33,0.00,6.47,36.94,2.22,53.33,7.01,34.27,20.00,8.33,12.95
1,110.21,70.00,83.33,47.54,5.39,3.00,3.50,4.36,5.52,20.00,2.00,7.69,40.57,0.00,86.67,8.54,0.00,0.00,0.00,0.00,35.01,13.33,0.00,6.54,37.15,2.22,53.33,7.12,33.57,20.00,8.33,12.65
1,112.40,74.29,80.00,49.68,5.38,3.00,3.50,4.36,5.49,20.00,2.00,7.68,40.93,0.00,86.67,9.04,0.00,0.00,0.00,0.00,34.27,13.33,0.00,6.20,37.06,2.22,53.33,7.41,32.06,16.67,8.33,12.17
1,113.00,77.14,80.00,50.01,5.38,3.00,3.50,4.36,5.49,20.00,2.00,7.68,40.28,0.00,88.33,8.29,0.00,0.00,0.00,0.00,32.19,13.33,0.00,5.78,35.49,2.22,48.89,6.70,31.09,16.67,8.33,11.10
1,117.90,80.00,86.67,53.95,5.38,3.00,3.50,4.36,5.46,20.00,2.00,7.68,40.24,0.00,86.67,8.48,0.00,0.00,0.00,0.00,34.89,20.00,0.00,6.63,35.34,2.22,48.89,6.65,30.66,16.67,8.33,10.99
0,119.43,80.00,80.00,57.58,5.39,3.00,3.50,4.36,5.46,20.00,2.00,7.68,39.55,0.00,81.67,8.23,0.00,0.00,0.00,0.00,34.46,20.00,0.00,6.50,35.55,2.22,46.67,6.67,29.09,13.33,8.33,10.10
0,117.73,77.14,76.67,57.89,5.38,3.00,3.50,4.36,4.12,13.33,1.50,6.85,39.68,0.00,81.67,8.15,0.00,0.00,0.00,0.00,34.03,20.00,0.00,6.38,36.20,2.22,46.67,6.76,28.74,13.33,8.33,9.99
0,113.50,74.29,70.00,54.42,5.37,3.00,3.50,4.36,1.33,3.33,0.00,2.57,42.19,5.00,83.33,9.23,0.13,0.00,0.00,0.04,35.10,20.00,0.00,6.47,36.15,2.22,46.67,6.54,29.47,13.33,8.33,10.22
0,111.60,72.86,66.67,52.38,3.87,2.00,2.50,3.10,0.47,0.00,0.00,0.01,42.35,5.00,83.33,10.01,0.15,0.00,0.00,0.04,36.00,23.33,0.00,6.79,36.57,2.22,46.67,6.62,28.21,13.33,8.33,9.65
0,108.03,70.00,60.00,51.30,3.65,2.00,2.50,3.05,0.43,0.00,0.00,0.01,42.80,5.00,83.33,10.25,0.15,0.00,0.00,0.04,38.43,26.67,5.00,8.79,36.09,2.22,42.22,6.52,27.30,13.33,8.33,9.34
0,110.08,70.00,63.33,52.27,3.64,2.00,2.50,3.05,0.42,0.00,0.00,0.01,43.01,5.00,85.00,10.16,0.15,0.00,0.00,0.04,42.46,33.33,5.00,12.16,35.97,0.00,42.22,6.19,25.58,13.33,8.33,8.53
0,108.99,64.29,63.33,53.62,3.65,2.00,2.50,3.05,0.43,0.00,0.00,0.01,45.49,10.00,83.33,11.68,0.15,0.00,0.00,0.04,44.18,33.33,5.00,13.22,35.12,0.00,40.00,5.89,24.64,13.33,8.33,8.20
0,111.18,64.29,66.67,56.31,3.65,2.00,2.50,3.05,1.66,10.00,0.50,1.33,45.03,10.00,81.67,11.55,0.15,0.00,0.00,0.04,44.22,33.33,5.00,13.24,34.15,0.00,37.78,5.66,21.94,6.67,0.00,5.80
0,114.58,68.57,70.00,58.87,3.65,2.00,2.50,3.05,1.90,10.00,0.50,1.50,44.18,10.00,80.00,11.37,0.15,0.00,0.00,0.04,47.09,40.00,5.00,14.44,33.93,0.00,35.56,5.50,22.06,6.67,0.00,5.73
0,116.88,68.57,70.00,63.11,3.65,2.00,2.50,3.05,1.92,10.00,0.50,1.50,43.38,10.00,75.00,11.06,0.15,0.00,0.00,0.04,47.76,43.33,10.00,15.07,33.56,0.00,35.56,5.47,20.86,6.67,0.00,5.31
0,118.78,68.57,73.33,65.33,3.66,2.00,2.50,3.05,1.93,10.00,0.50,1.50,43.62,10.00,76.67,10.86,0.15,0.00,0.00,0.04,49.30,46.67,10.00,15.61,32.87,0.00,35.56,5.37,20.41,6.67,0.00,4.80
0,113.59,62.86,66.67,63.14,3.66,2.00,2.50,3.05,1.92,10.00,0.50,1.50,43.50,10.00,75.00,11.20,0.15,0.00,0.00,0.04,51.06,50.00,10.00,16.27,31.74,0.00,33.33,5.06,20.04,6.67,0.00,4.64
0,122.90,67.14,76.67,72.87,3.66,2.00,2.50,3.05,2.55,13.33,0.50,1.84,43.87,10.00,76.67,11.34,0.15,0.00,0.00,0.04,51.48,50.00,10.00,16.29,31.82,0.00,31.11,5.05,19.64,6.67,0.00,4.42
0,129.84,70.00,86.67,80.54,2.21,1.00,0.50,2.40,4.93,20.00,1.50,5.39,42.56,10.00,73.33,10.94,0.15,0.00,0.00,0.04,53.80,56.67,10.00,17.70,31.75,0.00,31.11,5.03,18.25,0.00,0.00,3.73
0,129.68,71.43,83.33,79.78,1.53,1.00,1.00,0.65,7.39,30.00,2.50,9.60,43.02,10.00,73.33,11.11,0.15,0.00,0.00,0.04,53.73,56.67,10.00,17.69,32.38,0.00,33.33,5.20,18.11,0.00,0.00,3.67
0,129.61,71.43,76.67,80.73,1.56,1.00,1.00,0.65,7.95,33.33,2.50,10.73,42.62,10.00,73.33,11.12,0.15,0.00,0.00,0.04,54.93,56.67,10.00,18.06,31.82,0.00,33.33,5.14,16.99,0.00,0.00,3.08
0,128.44,72.86,76.67,79.66,1.55,1.00,1.00,0.65,7.97,33.33,2.50,10.73,42.08,10.00,71.67,10.68,0.15,0.00,0.00,0.04,54.92,56.67,10.00,17.79,30.94,0.00,28.89,4.98,16.08,0.00,0.00,2.68
0,129.74,77.14,73.33,78.82,1.56,1.00,1.00,0.65,7.97,33.33,2.50,10.73,40.57,10.00,65.00,10.19,0.75,0.50,2.50,1.42,55.58,56.67,10.00,17.63,30.03,0.00,26.67,4.89,15.75,0.00,0.00,2.49
0,124.80,74.29,70.00,76.04,1.56,1.00,1.00,0.65,7.97,33.33,2.50,10.73,38.91,10.00,61.67,9.64,1.23,0.50,2.50,2.44,55.49,56.67,10.00,17.75,29.48,0.00,22.22,4.16,15.63,0.00,0.00,2.38
0,123.56,71.43,70.00,75.09,1.56,1.00,1.00,0.65,7.97,33.33,2.50,10.73,38.85,10.00,60.00,9.72,1.53,1.00,2.50,2.44,55.92,56.67,10.00,17.76,29.36,0.00,22.22,4.17,15.63,0.00,0.00,2.40
0,122.30,71.43,63.33,74.40,1.55,1.00,1.00,0.65,7.97,33.33,2.50,10.73,38.59,10.00,61.67,9.52,2.82,2.00,7.50,5.79,53.03,50.00,10.00,16.89,30.08,0.00,22.22,4.32,15.47,0.00,0.00,2.36
0,124.19,72.86,70.00,74.30,1.96,1.50,1.50,0.79,7.99,33.33,2.50,10.73,38.38,10.00,61.67,9.51,2.84,2.00,7.50,5.80,55.36,53.33,10.00,17.42,29.66,0.00,20.00,4.38,14.87,0.00,0.00,2.21
0,125.40,74.29,76.67,74.46,3.97,2.50,2.50,2.94,7.99,33.33,2.50,10.73,37.69,10.00,58.33,9.38,2.85,2.00,7.50,5.80,56.53,53.33,10.00,18.03,29.27,0.00,20.00,4.29,14.72,0.00,0.00,2.20
0,127.04,75.71,76.67,74.90,4.25,2.50,2.50,3.18,7.99,33.33,2.50,10.73,35.44,5.00,56.67,8.29,2.73,2.00,7.50,5.77,55.21,50.00,10.00,17.70,28.49,0.00,17.78,4.02,13.86,0.00,0.00,1.75
0,126.36,72.86,80.00,75.91,4.26,2.50,2.50,3.18,7.99,33.33,2.50,10.73,34.18,5.00,56.67,7.45,2.70,2.00,7.50,5.76,53.93,50.00,10.00,17.31,27.31,0.00,15.56,3.82,12.96,0.00,0.00,1.59
0,125.29,71.43,80.00,75.15,4.25,2.50,2.50,3.18,7.99,33.33,2.50,10.73,32.68,5.00,51.67,6.89,2.69,2.00,7.50,5.76,50.48,43.33,5.00,15.62,26.06,0.00,13.33,3.60,12.91,0.00,0.00,1.58
0,124.46,72.86,80.00,72.35,4.24,2.50,2.50,3.18,8.00,33.33,2.50,10.73,31.94,5.00,50.00,6.59,2.69,2.00,7.50,5.76,46.59,36.67,5.00,12.04,24.67,0.00,11.11,3.24,13.44,0.00,0.00,1.66
0,124.62,72.86,86.67,72.31,4.24,2.50,2.50,3.18,8.00,33.33,2.50,10.73,28.65,0.00,43.33,5.01,2.69,2.00,7.50,5.76,42.96,33.33,5.00,10.19,24.35,0.00,8.89,3.06,13.36,0.00,0.00,1.66
0,122.68,70.00,83.33,70.68,4.23,2.50,2.50,3.18,7.14,26.67,2.00,10.24,28.06,0.00,41.67,4.96,2.69,2.00,7.50,5.76,42.14,33.33,5.00,9.87,24.42,0.00,8.89,3.06,13.29,0.00,0.00,1.61
0,121.27,70.00,80.00,68.45,4.24,2.50,2.50,3.18,6.58,23.33,2.00,9.25,28.85,0.00,41.67,5.20,2.69,2.00,7.50,5.76,40.09,30.00,5.00,9.33,24.29,0.00,8.89,3.05,13.68,0.00,0.00,1.71
0,119.43,68.57,83.33,66.09,4.25,2.50,2.50,3.18,6.52,23.33,2.00,9.24,28.30,0.00,40.00,5.21,2.69,2.00,7.50,5.76,37.60,23.33,0.00,7.77,23.81,0.00,6.67,2.88,13.62,0.00,0.00,1.69
0,117.09,70.00,80.00,64.71,4.25,2.50,2.50,3.18,8.15,33.33,2.50,11.52,28.52,0.00,38.33,5.31,2.69,2.00,7.50,5.76,37.05,23.33,0.00,7.74,24.24,0.00,6.67,2.88,13.44,0.00,0.00,1.67
0,118.89,71.43,80.00,63.94,4.26,2.50,2.50,3.18,8.85,36.67,2.50,12.09,27.37,0.00,40.00,4.85,2.69,2.00,7.50,5.76,34.36,16.67,0.00,6.59,23.86,0.00,2.22,2.75,13.58,0.00,0.00,1.69
0,114.46,72.86,73.33,57.81,4.26,2.50,2.50,3.18,8.33,33.33,2.50,11.78,26.76,0.00,38.33,4.63,2.69,2.00,7.50,5.76,33.95,16.67,0.00,6.55,24.08,0.00,2.22,2.79,12.73,0.00,0.00,1.45
0,108.24,70.00,66.67,51.34,4.25,2.50,2.50,3.18,6.36,26.67,1.50,8.45,27.48,0.00,41.67,4.77,2.69,2.00,7.50,5.76,30.72,10.00,0.00,4.90,23.45,0.00,2.22,2.61,12.77,0.00,0.00,1.42
0,104.42,68.57,63.33,49.24,3.28,1.50,1.50,2.61,4.23,20.00,0.50,4.52,27.70,0.00,41.67,4.89,2.69,2.00,7.50,5.76,30.12,10.00,0.00,4.80,22.63,0.00,0.00,2.36,12.74,0.00,0.00,1.44
0,102.22,67.14,60.00,48.18,5.07,2.50,2.50,4.68,4.38,20.00,1.00,4.18,27.02,0.00,40.00,4.74,2.69,2.00,7.50,5.76,28.07,10.00,0.00,4.32,22.58,0.00,0.00,2.37,12.49,0.00,0.00,1.41
0,97.46,62.86,53.33,44.12,6.35,3.50,4.00,5.74,6.74,30.00,2.00,7.06,27.02,0.00,40.00,4.75,2.69,2.00,7.50,5.76,26.97,6.67,0.00,4.08,22.82,0.00,0.00,2.59,12.54,0.00,0.00,1.45
0,94.47,57.14,50.00,42.45,6.51,3.50,4.00,5.77,7.60,33.33,2.50,9.52,27.12,0.00,40.00,4.69,2.69,2.00,7.50,5.76,24.37,3.33,0.00,3.48,22.13,0.00,0.00,2.44,12.45,0.00,0.00,1.46
0,92.85,54.29,53.33,39.68,6.51,3.50,4.00,5.77,7.63,33.33,2.50,9.53,27.24,0.00,41.67,4.62,1.65,1.50,5.00,3.38,22.24,3.33,0.00,2.93,21.37,0.00,0.00,2.34,13.15,0.00,0.00,1.69
0,93.21,52.86,53.33,40.16,6.51,3.50,4.00,5.77,7.63,33.33,2.50,9.53,28.21,0.00,45.00,4.97,1.60,1.50,5.00,3.36,22.21,3.33,0.00,2.96,21.21,0.00,0.00,2.30,12.92,0.00,0.00,1.66
0,94.16,55.71,53.33,40.26,6.51,3.50,4.00,5.77,7.63,33.33,2.50,9.53,28.02,0.00,43.33,4.98,0.12,0.00,0.00,0.10,21.89,3.33,0.00,2.90,20.38,0.00,0.00,2.16,12.76,0.00,0.00,1.65
0,93.71,55.71,50.00,39.35,6.40,3.50,3.50,5.77,7.61,33.33,2.50,9.53,27.36,0.00,41.67,4.78,0.00,0.00,0.00,0.00,19.99,3.33,0.00,2.52,19.46,0.00,0.00,1.94,13.26,0.00,0.00,1.73
0,87.76,54.29,40.00,33.11,4.68,2.50,2.50,4.80,7.61,33.33,2.50,9.53,27.43,0.00,43.33,4.77,0.00,0.00,0.00,0.00,16.66,0.00,0.00,1.41,19.54,0.00,0.00,1.89,13.07,0.00,0.00,1.78
0,89.85,55.71,43.33,35.10,3.93,2.00,2.50,3.25,7.60,33.33,2.50,9.53,27.69,0.00,45.00,4.67,0.00,0.00,0.00,0.00,16.62,0.00,0.00,1.41,19.28,0.00,0.00,1.82,13.19,0.00,0.00,1.81
0,88.31,57.14,43.33,33.63,5.78,3.00,3.50,5.28,7.60,33.33,2.50,9.53,27.37,0.00,41.67,4.61,0.00,0.00,0.00,0.00,16.14,0.00,0.00,1.36,19.21,0.00,0.00,1.84,13.38,0.00,0.00,1.84
0,88.40,58.57,43.33,33.34,6.05,3.00,3.50,5.51,7.60,33.33,2.50,9.53,28.00,0.00,43.33,4.73,0.00,0.00,0.00,0.00,16.04,0.00,0.00,1.35,19.55,0.00,0.00,1.86,13.68,0.00,0.00,1.91
0,90.37,58.57,40.00,33.91,6.06,3.00,3.50,5.51,7.60,33.33,2.50,9.53,28.41,0.00,45.00,4.81,0.00,0.00,0.00,0.00,15.56,0.00,0.00,1.18,19.26,0.00,0.00,1.83,13.38,0.00,0.00,1.89
0,85.68,57.14,33.33,31.24,6.06,3.00,3.50,5.51,7.61,33.33,2.50,9.53,29.28,0.00,48.33,5.09,0.00,0.00,0.00,0.00,14.76,0.00,0.00,1.07,18.60,0.00,0.00,1.72,13.43,0.00,0.00,1.92
0,82.46,54.29,30.00,29.35,6.06,3.00,3.50,5.51,7.61,33.33,2.50,9.53,29.08,0.00,48.33,5.03,0.00,0.00,0.00,0.00,14.69,0.00,0.00,1.06,19.02,0.00,0.00,1.81,13.45,0.00,0.00,1.94
0,83.23,54.29,30.00,29.11,6.06,3.00,3.50,5.51,7.59,33.33,2.50,9.53,29.38,0.00,51.67,4.83,0.00,0.00,0.00,0.00,14.16,0.00,0.00,0.99,18.99,0.00,0.00,1.80,13.29,0.00,0.00,1.91
0,79.46,51.43,26.67,26.82,6.05,3.00,3.50,5.51,7.59,33.33,2.50,9.53,29.04,0.00,51.67,4.75,0.00,0.00,0.00,0.00,14.23,0.00,0.00,1.02,19.07,0.00,0.00,1.85,13.27,0.00,0.00,1.89
0,79.04,50.00,26.67,26.39,6.04,3.00,3.50,5.51,6.34,26.67,2.00,7.68,28.79,0.00,50.00,4.59,0.00,0.00,0.00,0.00,13.23,0.00,0.00,0.91,18.70,0.00,0.00,1.83,13.43,0.00,0.00,1.89
0,79.48,48.57,26.67,26.18,6.03,3.00,3.50,5.51,5.32,20.00,2.00,6.72,28.32,0.00,45.00,4.47,0.00,0.00,0.00,0.00,13.28,0.00,0.00,0.87,18.94,0.00,0.00,1.88,13.13,0.00,0.00,1.80
0,74.76,44.29,23.33,23.76,6.04,3.00,3.50,5.51,5.20,20.00,2.00,6.67,28.79,0.00,46.67,4.63,0.00,0.00,0.00,0.00,13.34,0.00,0.00,0.85,18.64,0.00,0.00,1.95,13.89,0.00,0.00,1.96
0,73.57,42.86,23.33,23.28,6.04,3.00,3.50,5.51,7.25,30.00,3.00,10.11,28.40,0.00,41.67,4.62,0.00,0.00,0.00,0.00,13.13,0.00,0.00,0.81,18.73,0.00,0.00,2.03,13.96,0.00,0.00,2.07
0,71.39,38.57,20.00,21.82,6.04,3.00,3.50,5.51,9.35,36.67,4.00,13.86,27.57,0.00,38.33,4.39,0.00,0.00,0.00,0.00,12.95,0.00,0.00,0.80,19.06,0.00,0.00,2.09,14.03,0.00,0.00,2.13
0,68.47,34.29,16.67,20.03,4.56,2.50,2.50,3.77,8.89,36.67,3.50,13.26,27.87,0.00,40.00,4.39,0.00,0.00,0.00,0.00,13.12,0.00,0.00,0.80,19.30,0.00,0.00,2.16,14.04,0.00,0.00,2.12
0,69.67,35.71,16.67,20.67,2.94,1.00,1.00,2.39,7.48,30.00,3.00,11.50,28.11,0.00,41.67,4.36,0.00,0.00,0.00,0.00,12.09,0.00,0.00,0.67,18.19,0.00,0.00,1.81,14.13,0.00,0.00,2.14
0,68.06,34.29,16.67,20.11,2.69,1.00,1.00,2.28,5.38,23.33,2.00,7.84,27.81,0.00,40.00,4.28,0.00,0.00,0.00,0.00,12.41,0.00,0.00,0.68,17.83,0.00,0.00,1.78,13.85,0.00,0.00,2.04
0,67.16,34.29,13.33,20.32,2.70,1.00,1.00,2.28,5.59,26.67,2.00,7.88,28.47,0.00,41.67,4.54,0.00,0.00,0.00,0.00,12.90,0.00,0.00,0.71,18.93,0.00,2.22,2.03,12.81,0.00,0.00,1.80
0,67.46,37.14,13.33,20.44,3.12,1.00,1.00,2.28,6.88,30.00,2.50,9.59,27.39,0.00,36.67,4.11,0.00,0.00,0.00,0.00,13.24,0.00,0.00,0.75,19.33,0.00,2.22,2.17,12.86,0.00,0.00,1.79
0,63.65,31.43,13.33,19.41,5.72,2.50,3.00,5.04,9.17,40.00,3.50,13.44,28.21,0.00,40.00,4.41,0.00,0.00,0.00,0.00,13.16,0.00,0.00,0.71,19.38,0.00,2.22,2.18,13.04,0.00,0.00,1.81
0,62.35,30.00,13.33,18.04,6.45,3.00,3.50,6.18,9.46,40.00,3.50,13.80,28.73,0.00,45.00,4.60,0.00,0.00,0.00,0.00,13.30,0.00,0.00,0.72,20.02,0.00,2.22,2.35,12.98,0.00,0.00,1.86
0,59.19,24.29,10.00,17.35,6.50,3.00,3.50,6.19,9.47,40.00,3.50,13.80,29.65,0.00,46.67,4.76,0.00,0.00,0.00,0.00,13.27,0.00,0.00,0.71,19.85,0.00,2.22,2.33,12.70,0.00,0.00,1.76
0,59.04,24.29,13.33,16.23,6.47,3.00,3.50,6.19,9.47,40.00,3.50,13.80,29.58,0.00,45.00,4.80,0.00,0.00,0.00,0.00,13.57,0.00,0.00,0.75,19.96,0.00,4.44,2.42,13.08,0.00,0.00,1.85
0,58.65,22.86,13.33,15.82,5.09,2.50,2.50,5.39,9.46,40.00,3.50,13.80,29.45,0.00,46.67,4.74,0.00,0.00,0.00,0.00,13.86,0.00,0.00,0.74,20.37,0.00,4.44,2.51,12.97,0.00,0.00,1.85
0,56.43,20.00,10.00,14.56,4.27,2.00,2.50,3.92,9.47,40.00,3.50,13.80,28.69,0.00,46.67,4.51,0.00,0.00,0.00,0.00,13.61,0.00,0.00,0.72,20.79,0.00,4.44,2.64,12.52,0.00,0.00,1.80
0,57.96,22.86,13.33,16.10,4.23,2.00,2.50,3.91,9.47,40.00,3.50,13.80,27.74,0.00,45.00,4.33,0.00,0.00,0.00,0.00,14.22,0.00,0.00,0.80,21.51,0.00,4.44,2.86,12.55,0.00,0.00,1.76
0,55.97,21.43,13.33,15.78,4.23,2.00,2.50,3.91,9.48,40.00,3.50,13.80,27.70,0.00,45.00,4.23,0.00,0.00,0.00,0.00,14.27,0.00,0.00,0.82,21.68,0.00,4.44,2.84,12.18,0.00,0.00,1.69
0,57.80,21.43,13.33,16.49,4.23,2.00,2.50,3.91,9.48,40.00,3.50,13.80,27.53,0.00,45.00,4.10,0.00,0.00,0.00,0.00,14.59,0.00,0.00,0.86,21.36,0.00,4.44,2.74,12.31,0.00,0.00,1.72
0,57.78,22.86,13.33,16.51,4.47,2.00,2.50,3.94,9.48,40.00,3.50,13.80,27.13,0.00,46.67,4.02,0.00,0.00,0.00,0.00,14.32,0.00,0.00,0.85,21.67,0.00,4.44,2.75,11.65,0.00,0.00,1.61
0,60.31,24.29,16.67,19.20,5.55,2.50,3.00,4.36,9.48,40.00,3.50,13.80,27.34,0.00,48.33,4.09,0.00,0.00,0.00,0.00,14.41,0.00,0.00,0.87,21.56,0.00,4.44,2.74,12.12,0.00,0.00,1.71
0,66.29,28.57,23.33,22.96,7.50,3.50,5.00,6.90,9.48,40.00,3.50,13.80,28.04,0.00,51.67,4.23,0.00,0.00,0.00,0.00,14.60,0.00,0.00,0.89,22.04,0.00,4.44,2.83,11.64,0.00,0.00,1.62
0,67.84,32.86,23.33,23.88,8.20,4.00,5.00,7.52,9.48,40.00,3.50,13.80,27.76,0.00,51.67,4.24,0.00,0.00,0.00,0.00,14.72,0.00,0.00,0.91,22.48,0.00,4.44,2.94,11.87,0.00,0.00,1.66
0,68.75,34.29,23.33,24.33,8.21,4.00,5.00,7.53,9.48,40.00,3.50,13.80,27.44,0.00,48.33,4.24,0.00,0.00,0.00,0.00,14.12,0.00,0.00,0.87,22.21,0.00,4.44,2.87,12.14,0.00,0.00,1.81
0,70.75,35.71,26.67,25.53,8.21,4.00,5.00,7.53,7.58,30.00,2.50,10.69,26.97,0.00,48.33,4.12,0.00,0.00,0.00,0.00,13.97,0.00,0.00,0.86,22.06,0.00,4.44,2.77,11.92,0.00,0.00,1.65
0,71.76,37.14,26.67,25.90,8.21,4.00,5.00,7.53,5.51,23.33,1.50,6.86,27.34,0.00,50.00,4.04,0.00,0.00,0.00,0.00,14.27,0.00,0.00,0.89,22.15,0.00,4.44,2.75,12.23,0.00,0.00,1.76
0,72.83,37.14,30.00,27.25,8.19,4.00,5.00,7.52,4.64,16.67,1.50,5.99,27.31,0.00,48.33,4.06,0.00,0.00,0.00,0.00,14.29,0.00,0.00,0.90,22.31,0.00,4.44,2.74,12.47,0.00,0.00,1.80
0,72.15,35.71,30.00,27.09,8.20,4.00,5.00,7.53,4.59,16.67,1.50,5.98,28.05,0.00,50.00,4.12,0.00,0.00,0.00,0.00,14.41,0.00,0.00,0.92,22.77,0.00,4.44,2.82,12.22,0.00,0.00,1.78
0,71.97,37.14,30.00,26.90,8.19,4.00,5.00,7.53,4.59,16.67,1.50,5.98,28.31,0.00,51.67,4.31,0.00,0.00,0.00,0.00,14.43,0.00,0.00,0.92,23.41,0.00,4.44,2.90,11.91,0.00,0.00,1.72
0,74.48,41.43,30.00,28.61,8.18,4.00,5.00,7.52,4.59,16.67,1.50,5.98,28.07,0.00,50.00,4.25,0.00,0.00,0.00,0.00,14.80,0.00,0.00,0.97,22.25,0.00,2.22,2.68,12.72,0.00,0.00,1.90
0,75.57,40.00,30.00,29.91,8.18,4.00,5.00,7.52,3.88,13.33,1.00,5.84,28.73,0.00,56.67,4.37,0.00,0.00,0.00,0.00,14.58,0.00,0.00,0.93,21.46,0.00,2.22,2.44,12.63,0.00,0.00,1.90
0,77.24,40.00,30.00,30.64,6.14,3.00,3.50,5.24,1.34,3.33,0.00,2.52,28.46,0.00,53.33,4.26,0.00,0.00,0.00,0.00,14.20,0.00,0.00,0.92,21.37,0.00,2.22,2.42,12.67,0.00,0.00,1.91
0,76.23,38.57,30.00,30.91,4.49,2.00,2.50,3.63,0.48,0.00,0.00,0.02,27.40,0.00,50.00,3.89,0.00,0.00,0.00,0.00,14.39,0.00,0.00,0.94,20.85,0.00,2.22,2.26,12.51,0.00,0.00,1.88
0,80.16,42.86,36.67,32.15,4.41,2.00,2.50,3.62,0.45,0.00,0.00,0.01,27.14,0.00,48.33,3.79,0.00,0.00,0.00,0.00,14.63,0.00,0.00,0.96,20.91,0.00,2.22,2.25,12.46,0.00,0.00,1.86
0,78.06,41.43,30.00,31.07,4.41,2.00,2.50,3.62,0.44,0.00,0.00,0.01,27.85,0.00,50.00,4.11,0.00,0.00,0.00,0.00,14.09,0.00,0.00,0.89,20.65,0.00,0.00,2.15,12.50,0.00,0.00,1.87
0,79.08,41.43,30.00,31.36,4.41,2.00,2.50,3.62,0.44,0.00,0.00,0.01,28.50,0.00,51.67,4.36,0.00,0.00,0.00,0.00,13.81,0.00,0.00,0.85,20.26,0.00,0.00,2.03,12.78,0.00,0.00,2.00
0,80.83,44.29,30.00,32.37,4.42,2.00,2.50,3.62,2.33,6.67,1.00,3.12,29.23,0.00,53.33,4.59,0.00,0.00,0.00,0.00,14.01,0.00,0.00,0.88,20.18,0.00,0.00,1.97,12.69,0.00,0.00,1.92
0,78.56,40.00,26.67,30.61,4.42,2.00,2.50,3.62,3.78,13.33,1.50,5.14,29.39,0.00,53.33,4.68,0.00,0.00,0.00,0.00,13.49,0.00,0.00,0.82,19.91,0.00,0.00,1.82,13.20,0.00,0.00,2.07
0,78.94,40.00,26.67,31.17,4.43,2.00,2.50,3.62,4.63,20.00,1.50,5.86,28.92,0.00,51.67,4.58,0.00,0.00,0.00,0.00,13.21,0.00,0.00,0.77,19.80,0.00,0.00,1.81,13.08,0.00,0.00,2.05
0,79.53,42.86,26.67,30.69,4.43,2.00,2.50,3.62,5.38,26.67,1.50,6.41,29.14,0.00,51.67,4.61,0.00,0.00,0.00,0.00,13.37,0.00,0.00,0.77,20.50,0.00,0.00,1.91,13.09,0.00,0.00,2.05
0,78.41,41.43,26.67,30.70,4.25,2.00,2.50,3.59,5.52,26.67,1.50,6.44,28.78,0.00,48.33,4.68,0.00,0.00,0.00,0.00,13.41,0.00,0.00,0.79,20.18,0.00,0.00,1.89,13.49,0.00,0.00,2.10
0,79.21,42.86,26.67,30.48,4.01,2.00,2.50,3.56,5.52,26.67,1.50,6.44,29.12,0.00,46.67,4.80,0.00,0.00,0.00,0.00,13.11,0.00,0.00,0.76,19.76,0.00,0.00,1.84,13.08,0.00,0.00,2.02
0,72.22,38.57,16.67,26.13,2.26,1.00,0.50,2.43,5.51,26.67,1.50,6.44,29.04,0.00,46.67,4.74,0.00,0.00,0.00,0.00,12.98,0.00,0.00,0.76,19.66,0.00,0.00,1.81,12.68,0.00,0.00,1.98
0,72.92,37.14,16.67,26.22,0.50,0.00,0.00,0.02,5.52,26.67,1.50,6.44,29.21,0.00,48.33,4.84,0.00,0.00,0.00,0.00,13.38,0.00,0.00,0.80,19.54,0.00,0.00,1.68,13.20,0.00,0.00,2.15
0,72.63,35.71,16.67,26.22,0.46,0.00,0.00,0.01,6.20,30.00,1.50,6.99,29.12,0.00,48.33,4.75,0.00,0.00,0.00,0.00,13.64,0.00,0.00,0.79,19.00,0.00,0.00,1.61,13.01,0.00,0.00,2.17
0,70.64,34.29,13.33,24.70,1.78,0.50,0.50,0.79,8.18,40.00,2.50,9.95,29.82,0.00,50.00,5.05,0.00,0.00,0.00,0.00,13.41,0.00,0.00,0.79,18.92,0.00,0.00,1.68,12.36,0.00,0.00,1.94
0,71.58,34.29,13.33,24.69,3.45,1.50,2.50,3.13,10.24,46.67,3.50,13.71,29.22,0.00,46.67,5.05,0.00,0.00,0.00,0.00,13.66,0.00,0.00,0.84,19.41,0.00,0.00,1.80,11.86,0.00,0.00,1.85
0,74.84,37.14,16.67,26.73,3.94,2.00,2.50,3.43,10.48,46.67,3.50,13.97,29.13,0.00,46.67,5.15,0.00,0.00,0.00,0.00,13.81,0.00,0.00,0.85,18.89,0.00,0.00,1.71,12.02,0.00,0.00,1.81
0,74.25,37.14,16.67,26.41,3.94,2.00,2.50,3.43,10.49,46.67,3.50,13.97,29.21,0.00,45.00,5.20,0.00,0.00,0.00,0.00,13.59,0.00,0.00,0.84,18.29,0.00,0.00,1.60,11.92,0.00,0.00,1.79
0,73.39,35.71,16.67,25.92,3.94,2.00,2.50,3.43,10.51,46.67,3.50,13.98,29.01,0.00,45.00,5.15,0.00,0.00,0.00,0.00,13.44,0.00,0.00,0.84,18.76,0.00,2.22,1.62,12.27,0.00,0.00,1.89
0,71.77,34.29,16.67,24.68,3.94,2.00,2.50,3.43,10.51,46.67,3.50,13.98,28.52,0.00,43.33,5.01,0.00,0.00,0.00,0.00,12.78,0.00,0.00,0.78,18.98,0.00,2.22,1.65,12.23,0.00,0.00,1.88
0,67.35,30.00,13.33,22.69,3.94,2.00,2.50,3.43,10.51,46.67,3.50,13.98,28.41,0.00,40.00,5.08,0.00,0.00,0.00,0.00,13.06,0.00,0.00,0.84,19.48,0.00,2.22,1.73,11.91,0.00,0.00,1.78
0,67.38,31.43,13.33,20.87,3.93,2.00,2.50,3.43,10.51,46.67,3.50,13.98,27.66,0.00,36.67,5.00,0.00,0.00,0.00,0.00,14.01,0.00,0.00,0.97,19.50,0.00,2.22,1.77,11.69,0.00,0.00,1.76
0,70.20,37.14,20.00,21.62,3.93,2.00,2.50,3.43,10.50,46.67,3.50,13.98,28.41,0.00,36.67,5.34,0.00,0.00,0.00,0.00,14.55,0.00,0.00,1.07,19.46,0.00,2.22,1.77,11.74,0.00,0.00,1.73
0,66.31,35.71,13.33,21.06,3.93,2.00,2.50,3.43,10.51,46.67,3.50,13.98,27.65,0.00,35.00,5.24,0.00,0.00,0.00,0.00,14.81,0.00,0.00,1.16,19.39,0.00,2.22,1.74,11.97,0.00,0.00,1.82
0,64.50,34.29,13.33,20.13,3.92,2.00,2.50,3.43,10.51,46.67,3.50,13.98,27.38,0.00,35.00,5.01,0.00,0.00,0.00,0.00,15.14,0.00,0.00,1.20,19.35,0.00,2.22,1.75,12.13,0.00,0.00,1.93
0,66.31,37.14,16.67,21.03,3.91,2.00,2.50,3.43,10.51,46.67,3.50,13.98,27.11,0.00,31.67,4.76,0.00,0.00,0.00,0.00,15.11,0.00,0.00,1.22,19.53,0.00,2.22,1.77,12.11,0.00,0.00,1.94
0,65.72,37.14,16.67,21.47,4.23,2.50,2.50,3.49,9.21,43.33,2.50,12.79,27.20,0.00,33.33,4.70,0.00,0.00,0.00,0.00,15.17,0.00,0.00,1.23,18.96,0.00,2.22,1.73,12.14,0.00,0.00,1.99
0,65.38,35.71,16.67,21.03,5.40,3.50,3.50,4.29,7.50,36.67,2.00,9.18,27.60,0.00,33.33,5.04,0.00,0.00,0.00,0.00,15.31,0.00,0.00,1.23,18.68,0.00,2.22,1.72,12.17,0.00,0.00,1.94
0,64.99,35.71,16.67,21.39,7.48,4.50,5.00,6.73,6.39,26.67,2.00,8.18,28.20,0.00,35.00,5.26,0.00,0.00,0.00,0.00,15.84,0.00,0.00,1.34,19.04,0.00,2.22,1.77,12.24,0.00,0.00,1.94
0,65.89,35.71,16.67,21.90,7.61,4.50,5.00,6.76,5.61,20.00,2.00,7.61,28.11,0.00,36.67,5.12,0.00,0.00,0.00,0.00,16.10,0.00,0.00,1.38,18.17,0.00,2.22,1.64,12.36,0.00,0.00,1.99
0,67.91,35.71,16.67,22.81,7.60,4.50,5.00,6.76,5.43,20.00,2.00,7.55,28.70,0.00,41.67,5.24,0.00,0.00,0.00,0.00,16.08,0.00,0.00,1.39,18.33,0.00,2.22,1.70,12.36,0.00,0.00,2.02
0,70.36,38.57,23.33,23.61,7.60,4.50,5.00,6.76,5.42,20.00,2.00,7.55,28.29,0.00,40.00,5.02,0.00,0.00,0.00,0.00,16.06,0.00,0.00,1.39,18.58,0.00,2.22,1.72,12.17,0.00,0.00,2.00
0,69.07,35.71,23.33,22.82,7.59,4.50,5.00,6.76,5.42,20.00,2.00,7.55,27.51,0.00,36.67,4.99,0.00,0.00,0.00,0.00,16.17,0.00,0.00,1.40,18.28,0.00,2.22,1.72,12.48,0.00,0.00,2.13
0,68.55,35.71,23.33,22.16,7.59,4.50,5.00,6.76,5.42,20.00,2.00,7.55,27.75,0.00,36.67,5.02,0.00,0.00,0.00,0.00,16.09,0.00,0.00,1.39,18.67,0.00,4.44,1.77,12.31,0.00,0.00,2.13
0,68.95,37.14,23.33,22.21,7.60,4.50,5.00,6.76,5.23,20.00,2.00,7.55,28.88,0.00,40.00,5.25,0.00,0.00,0.00,0.00,16.12,0.00,0.00,1.39,19.10,0.00,4.44,1.79,12.11,0.00,0.00,1.97
0,69.96,40.00,23.33,23.24,7.57,4.50,5.00,6.76,3.33,10.00,1.00,5.80,29.42,0.00,41.67,5.38,0.00,0.00,0.00,0.00,16.15,0.00,0.00,1.42,19.19,0.00,4.44,1.79,12.40,0.00,0.00,2.10
0,71.40,41.43,23.33,23.97,5.34,3.50,3.00,4.46,1.19,3.33,0.00,0.95,29.46,0.00,43.33,5.13,0.00,0.00,0.00,0.00,16.26,0.00,0.00,1.43,19.02,0.00,4.44,1.67,12.52,0.00,0.00,2.17
0,65.58,37.14,16.67,20.50,4.15,2.50,2.50,3.35,0.50,0.00,0.00,0.01,29.31,0.00,43.33,5.20,0.00,0.00,0.00,0.00,16.15,0.00,0.00,1.42,19.15,0.00,4.44,1.69,12.07,0.00,0.00,2.09
0,67.35,40.00,16.67,21.05,4.13,2.50,2.50,3.34,0.48,0.00,0.00,0.01,29.10,0.00,43.33,5.09,0.00,0.00,0.00,0.00,16.31,0.00,0.00,1.42,19.31,0.00,4.44,1.71,12.20,0.00,0.00,2.12
0,67.93,42.86,16.67,21.10,4.14,2.50,2.50,3.34,0.45,0.00,0.00,0.01,29.22,0.00,43.33,5.21,0.00,0.00,0.00,0.00,16.29,0.00,0.00,1.41,19.03,0.00,2.22,1.70,12.02,0.00,0.00,2.05
0,67.75,41.43,16.67,21.02,4.14,2.50,2.50,3.34,0.46,0.00,0.00,0.01,29.82,0.00,43.33,5.40,0.00,0.00,0.00,0.00,16.12,0.00,0.00,1.40,19.37,0.00,2.22,1.74,12.18,0.00,0.00,2.03
0,69.08,41.43,16.67,21.43,4.15,2.50,2.50,3.34,0.48,0.00,0.00,0.01,29.13,0.00,41.67,5.24,0.00,0.00,0.00,0.00,15.87,0.00,0.00,1.35,18.92,0.00,2.22,1.72,12.32,0.00,0.00,2.13
0,70.08,42.86,16.67,21.32,4.16,2.50,2.50,3.34,0.48,0.00,0.00,0.01,29.36,0.00,43.33,5.30,0.00,0.00,0.00,0.00,15.54,0.00,0.00,1.31,18.79,0.00,2.22,1.71,12.41,0.00,0.00,2.14
0,69.07,41.43,13.33,21.50,4.16,2.50,2.50,3.34,0.84,3.33,0.00,0.01,28.54,0.00,41.67,4.98,0.00,0.00,0.00,0.00,14.61,0.00,0.00,1.13,18.75,0.00,2.22,1.70,12.35,0.00,0.00,2.08
0,66.75,37.14,13.33,20.57,4.17,2.50,2.50,3.34,3.09,13.33,1.50,3.06,28.44,0.00,43.33,4.83,0.00,0.00,0.00,0.00,13.79,0.00,0.00,0.99,18.55,0.00,2.22,1.67,12.60,0.00,0.00,2.12
0,68.31,38.57,13.33,20.99,4.17,2.50,2.50,3.34,3.79,16.67,1.50,4.42,28.46,0.00,41.67,4.82,0.00,0.00,0.00,0.00,13.94,0.00,0.00,0.97,18.60,0.00,2.22,1.70,12.32,0.00,0.00,2.08
0,67.14,35.71,10.00,20.73,4.18,2.50,2.50,3.34,3.88,16.67,1.50,4.44,27.99,0.00,40.00,4.75,0.00,0.00,0.00,0.00,13.97,0.00,0.00,0.95,18.30,0.00,2.22,1.66,12.55,0.00,0.00,2.12
0,65.57,34.29,10.00,20.04,3.95,2.00,2.50,3.32,3.88,16.67,1.50,4.44,27.06,0.00,35.00,4.46,0.00,0.00,0.00,0.00,13.99,0.00,0.00,0.94,18.66,0.00,2.22,1.71,12.61,0.00,0.00,2.13
0,63.83,32.86,10.00,19.30,2.95,1.50,1.50,2.63,3.88,16.67,1.50,4.44,26.99,0.00,36.67,4.36,0.00,0.00,0.00,0.00,14.22,0.00,0.00,0.97,18.98,0.00,2.22,1.85,12.48,0.00,0.00,2.12
0,65.44,34.29,10.00,19.49,0.75,0.00,0.00,0.25,3.87,16.67,1.50,4.44,26.80,0.00,38.33,4.08,0.00,0.00,0.00,0.00,13.62,0.00,0.00,0.86,18.80,0.00,2.22,1.78,12.74,0.00,0.00,2.18
0,62.33,32.86,10.00,17.58,0.48,0.00,0.00,0.01,4.00,16.67,1.50,4.46,27.90,0.00,38.33,4.37,0.00,0.00,0.00,0.00,13.56,0.00,0.00,0.84,18.98,0.00,2.22,1.82,12.76,0.00,0.00,2.22
0,65.07,37.14,13.33,18.58,0.47,0.00,0.00,0.01,5.27,23.33,2.00,5.83,26.98,0.00,36.67,4.24,0.00,0.00,0.00,0.00,13.17,0.00,0.00,0.77,18.77,0.00,2.22,1.78,13.24,0.00,0.00,2.19
0,61.49,34.29,6.67,17.40,2.40,1.00,1.00,2.15,7.64,30.00,3.00,9.47,27.99,0.00,40.00,4.40,0.00,0.00,0.00,0.00,12.97,0.00,0.00,0.74,18.85,0.00,2.22,1.79,13.14,0.00,0.00,2.17
0,61.03,34.29,6.67,17.43,3.54,2.00,2.50,3.03,10.57,40.00,4.50,14.39,27.91,0.00,41.67,4.37,0.00,0.00,0.00,0.00,12.40,0.00,0.00,0.70,18.79,0.00,2.22,1.77,13.05,0.00,0.00,2.13
0,61.78,35.71,6.67,17.92,4.10,2.50,3.50,3.25,11.45,43.33,5.00,16.97,28.50,0.00,41.67,4.44,0.00,0.00,0.00,0.00,12.22,0.00,0.00,0.66,18.40,0.00,0.00,1.77,13.15,0.00,0.00,2.12
0,61.63,35.71,6.67,17.77,4.14,2.50,3.50,3.25,11.48,43.33,5.00,16.98,28.37,0.00,43.33,4.39,0.00,0.00,0.00,0.00,12.31,0.00,0.00,0.66,19.13,0.00,2.22,1.89,12.99,0.00,0.00,2.09
0,59.28,31.43,6.67,16.46,4.15,2.50,3.50,3.25,11.48,43.33,5.00,16.98,27.29,0.00,40.00,4.14,0.00,0.00,0.00,0.00,12.06,0.00,0.00,0.62,18.31,0.00,2.22,1.81,13.27,0.00,0.00,2.10
0,57.17,30.00,6.67,15.06,4.16,2.50,3.50,3.25,11.46,43.33,5.00,16.98,28.41,0.00,43.33,4.22,0.00,0.00,0.00,0.00,11.59,0.00,0.00,0.59,19.18,0.00,2.22,1.85,13.04,0.00,0.00,2.02
0,58.40,30.00,6.67,15.36,4.16,2.50,3.50,3.25,11.46,43.33,5.00,16.98,28.54,0.00,45.00,4.22,0.00,0.00,0.00,0.00,11.46,0.00,0.00,0.54,18.97,0.00,2.22,1.86,13.25,0.00,0.00,2.02
0,57.02,28.57,6.67,15.24,4.14,2.50,3.50,3.25,11.46,43.33,5.00,16.98,29.44,0.00,50.00,4.38,0.00,0.00,0.00,0.00,11.32,0.00,0.00,0.54,19.52,0.00,2.22,2.02,13.51,0.00,0.00,2.09
0,57.36,28.57,6.67,15.25,4.15,2.50,3.50,3.25,11.47,43.33,5.00,16.98,29.04,0.00,50.00,4.29,0.00,0.00,0.00,0.00,11.69,0.00,0.00,0.55,19.12,0.00,2.22,1.97,13.38,0.00,0.00,2.08
0,56.09,28.57,6.67,14.80,4.16,2.50,3.50,3.25,11.47,43.33,5.00,16.98,29.06,0.00,50.00,4.29,0.00,0.00,0.00,0.00,11.92,0.00,0.00,0.58,18.88,0.00,2.22,1.94,13.82,0.00,0.00,2.17
0,55.79,30.00,6.67,14.61,4.16,2.50,3.50,3.25,11.45,43.33,5.00,16.98,29.47,0.00,53.33,4.34,0.00,0.00,0.00,0.00,11.90,0.00,0.00,0.57,18.59,0.00,2.22,1.89,13.52,0.00,0.00,2.08
0,57.53,34.29,6.67,15.99,4.14,2.50,3.50,3.25,11.45,43.33,5.00,16.98,29.66,0.00,55.00,4.27,0.00,0.00,0.00,0.00,12.00,0.00,0.00,0.58,18.88,0.00,4.44,1.87,13.35,0.00,0.00,2.03
0,55.52,32.86,3.33,14.99,4.78,3.00,4.00,3.42,11.44,43.33,5.00,16.98,29.98,0.00,56.67,4.35,0.00,0.00,0.00,0.00,11.67,0.00,0.00,0.56,19.04,0.00,4.44,1.95,13.41,0.00,0.00,2.05
0,56.98,32.86,3.33,15.19,6.47,4.00,5.50,4.33,9.70,33.33,4.00,14.47,30.15,0.00,58.33,4.57,0.00,0.00,0.00,0.00,11.49,0.00,0.00,0.54,19.39,0.00,4.44,2.06,13.34,0.00,0.00,2.02
0,55.91,32.86,3.33,14.77,8.59,5.00,7.50,7.50,8.30,26.67,3.50,12.62,31.14,0.00,63.33,4.74,0.00,0.00,0.00,0.00,11.39,0.00,0.00,0.52,19.20,0.00,4.44,2.03,13.24,0.00,0.00,1.97
0,56.53,34.29,3.33,15.36,9.28,5.50,7.50,8.13,8.07,26.67,3.50,12.55,31.49,0.00,68.33,4.94,0.00,0.00,0.00,0.00,11.39,0.00,0.00,0.53,20.06,0.00,4.44,2.11,12.70,0.00,0.00,1.74
0,55.70,31.43,3.33,14.14,9.30,5.50,7.50,8.13,8.07,26.67,3.50,12.55,32.52,0.00,70.00,5.19,0.00,0.00,0.00,0.00,11.19,0.00,0.00,0.51,19.10,0.00,4.44,2.02,12.79,0.00,0.00,1.74
0,58.63,35.71,6.67,15.38,9.31,5.50,7.50,8.13,8.08,26.67,3.50,12.55,32.97,0.00,73.33,5.43,0.00,0.00,0.00,0.00,10.80,0.00,0.00,0.50,18.47,0.00,4.44,1.83,12.61,0.00,0.00,1.70
0,57.63,32.86,6.67,15.37,9.31,5.50,7.50,8.13,8.08,26.67,3.50,12.55,31.82,0.00,66.67,5.20,0.00,0.00,0.00,0.00,10.88,0.00,0.00,0.50,18.67,0.00,4.44,1.84,12.23,0.00,0.00,1.58
0,59.52,34.29,6.67,16.12,9.30,5.50,7.50,8.13,7.98,26.67,3.50,12.53,31.12,0.00,63.33,5.13,0.00,0.00,0.00,0.00,10.68,0.00,0.00,0.49,18.56,0.00,4.44,1.84,12.14,0.00,0.00,1.58
0,57.34,32.86,3.33,14.95,9.30,5.50,7.50,8.13,6.77,20.00,3.00,11.27,30.86,0.00,60.00,5.22,0.00,0.00,0.00,0.00,10.83,0.00,0.00,0.50,17.88,0.00,4.44,1.77,12.19,0.00,0.00,1.61
0,54.81,30.00,3.33,13.49,7.82,5.00,6.50,6.39,4.76,13.33,2.00,7.76,30.75,0.00,60.00,5.18,0.00,0.00,0.00,0.00,11.05,0.00,0.00,0.55,17.98,0.00,4.44,1.78,12.26,0.00,0.00,1.57
0,54.59,31.43,3.33,13.80,6.32,3.50,5.00,5.17,2.64,6.67,1.00,3.81,30.18,0.00,56.67,5.12,0.00,0.00,0.00,0.00,11.32,0.00,0.00,0.56,18.09,0.00,6.67,1.80,12.14,0.00,0.00,1.51
0,57.19,34.29,3.33,15.53,5.72,3.00,4.00,4.91,0.54,0.00,0.00,0.03,29.93,0.00,56.67,5.06,0.00,0.00,0.00,0.00,11.25,0.00,0.00,0.54,18.09,0.00,8.89,1.77,11.91,0.00,0.00,1.44
0,57.52,35.71,3.33,15.94,5.64,3.00,4.00,4.89,0.49,0.00,0.00,0.01,30.04,0.00,53.33,5.16,0.00,0.00,0.00,0.00,10.89,0.00,0.00,0.53,17.77,0.00,8.89,1.75,12.17,0.00,0.00,1.49
0,55.96,32.86,3.33,15.43,5.63,3.00,4.00,4.89,0.48,0.00,0.00,0.01,30.86,0.00,61.67,5.28,0.00,0.00,0.00,0.00,10.85,0.00,0.00,0.53,18.30,0.00,8.89,1.82,11.55,0.00,0.00,1.36
0,57.73,35.71,3.33,16.00,5.63,3.00,4.00,4.89,0.48,0.00,0.00,0.01,30.47,0.00,58.33,5.29,0.00,0.00,0.00,0.00,11.03,0.00,0.00,0.54,18.39,0.00,8.89,1.84,11.56,0.00,0.00,1.38
0,56.37,35.71,3.33,15.60,5.63,3.00,4.00,4.89,0.48,0.00,0.00,0.01,29.69,0.00,53.33,5.16,0.00,0.00,0.00,0.00,11.32,0.00,0.00,0.57,18.16,0.00,8.89,1.83,11.63,0.00,0.00,1.39
0,57.49,37.14,3.33,15.58,5.64,3.00,4.00,4.89,1.97,3.33,1.00,2.63,29.19,0.00,50.00,5.01,0.00,0.00,0.00,0.00,11.35,0.00,0.00,0.58,17.25,0.00,8.89,1.68,11.51,0.00,0.00,1.32
0,57.30,35.71,3.33,15.70,5.63,3.00,4.00,4.89,4.07,13.33,2.00,5.85,28.69,0.00,50.00,4.85,0.00,0.00,0.00,0.00,10.92,0.00,0.00,0.56,17.04,0.00,8.89,1.58,11.67,0.00,0.00,1.32
0,56.47,34.29,3.33,15.45,5.63,3.00,4.00,4.89,5.28,20.00,2.00,7.25,28.79,0.00,51.67,5.10,0.00,0.00,0.00,0.00,10.86,0.00,0.00,0.56,17.89,0.00,11.11,1.87,11.70,0.00,0.00,1.37
0,58.58,37.14,3.33,16.28,5.63,3.00,4.00,4.89,5.42,20.00,2.00,7.34,28.36,0.00,46.67,5.07,0.00,0.00,0.00,0.00,11.19,0.00,0.00,0.58,18.34,0.00,11.11,1.95,11.59,0.00,0.00,1.30
0,56.41,34.29,3.33,15.35,5.63,3.00,4.00,4.89,5.72,20.00,2.00,7.42,27.94,0.00,45.00,5.26,0.00,0.00,0.00,0.00,10.76,0.00,0.00,0.56,17.91,0.00,8.89,1.92,11.73,0.00,0.00,1.33
0,57.93,34.29,3.33,15.35,5.13,2.50,3.50,4.73,5.73,20.00,2.00,7.42,28.55,0.00,46.67,5.28,0.00,0.00,0.00,0.00,10.53,0.00,0.00,0.55,17.98,0.00,8.89,1.85,11.50,0.00,0.00,1.29
0,56.46,31.43,3.33,15.16,4.49,2.00,2.50,4.48,5.74,20.00,2.00,7.42,28.37,0.00,45.00,5.20,0.00,0.00,0.00,0.00,10.92,0.00,0.00,0.58,17.98,0.00,8.89,1.78,11.32,0.00,0.00,1.26
0,57.92,32.86,3.33,15.57,2.28,1.00,0.50,2.48,5.72,20.00,2.00,7.42,27.60,0.00,40.00,5.12,0.00,0.00,0.00,0.00,11.06,0.00,0.00,0.60,18.20,0.00,8.89,1.78,11.31,0.00,0.00,1.25
0,55.95,30.00,3.33,14.83,0.50,0.00,0.00,0.02,6.12,23.33,2.00,7.54,26.96,0.00,35.00,4.95,0.00,0.00,0.00,0.00,10.87,0.00,0.00,0.59,17.70,0.00,8.89,1.77,10.91,0.00,0.00,1.16
0,55.78,30.00,3.33,14.79,2.77,1.00,1.50,2.30,7.50,26.67,2.50,9.44,26.13,0.00,35.00,4.92,0.00,0.00,0.00,0.00,10.82,0.00,0.00,0.58,18.22,0.00,8.89,1.84,10.83,0.00,0.00,1.24
0,58.06,31.43,3.33,15.53,5.43,2.50,3.50,4.83,9.81,36.67,3.50,13.31,24.33,0.00,30.00,4.40,0.00,0.00,0.00,0.00,10.96,0.00,0.00,0.58,18.01,0.00,8.89,1.80,11.29,0.00,0.00,1.34
0,56.39,30.00,0.00,14.63,6.56,3.50,4.50,6.71,11.88,43.33,4.50,17.15,24.51,0.00,30.00,4.39,0.00,0.00,0.00,0.00,11.06,0.00,0.00,0.57,18.61,0.00,8.89,1.91,11.09,0.00,0.00,1.29
0,56.86,30.00,0.00,14.77,6.77,3.50,4.50,6.78,12.12,43.33,4.50,17.41,25.55,0.00,36.67,4.62,0.00,0.00,0.00,0.00,11.43,0.00,0.00,0.57,18.73,0.00,8.89,1.90,11.43,0.00,0.00,1.36
0,55.28,27.14,0.00,13.89,6.77,3.50,4.50,6.78,12.12,43.33,4.50,17.42,25.86,0.00,40.00,4.48,0.00,0.00,0.00,0.00,11.54,0.00,0.00,0.59,19.00,0.00,8.89,1.93,11.15,0.00,0.00,1.32
0,54.94,27.14,0.00,13.65,6.77,3.50,4.50,6.78,12.11,43.33,4.50,17.41,25.85,0.00,38.33,4.47,0.00,0.00,0.00,0.00,11.73,0.00,0.00,0.58,19.75,0.00,11.11,2.11,10.79,0.00,0.00,1.27
0,55.39,25.71,0.00,13.58,6.77,3.50,4.50,6.78,12.10,43.33,4.50,17.41,25.99,0.00,40.00,4.44,0.00,0.00,0.00,0.00,11.88,0.00,0.00,0.58,19.61,0.00,8.89,2.10,10.97,0.00,0.00,1.29
0,54.63,24.29,0.00,12.20,6.77,3.50,4.50,6.78,12.11,43.33,4.50,17.41,26.30,0.00,41.67,4.63,0.00,0.00,0.00,0.00,11.84,0.00,0.00,0.59,19.40,0.00,6.67,2.05,11.02,0.00,0.00,1.34
0,53.31,22.86,0.00,11.70,6.77,3.50,4.50,6.78,12.10,43.33,4.50,17.41,25.66,0.00,40.00,4.47,0.00,0.00,0.00,0.00,12.15,0.00,0.00,0.63,19.56,0.00,4.44,2.07,11.43,0.00,0.00,1.41
0,55.18,25.71,0.00,12.27,6.77,3.50,4.50,6.78,12.10,43.33,4.50,17.41,26.08,0.00,38.33,4.56,0.00,0.00,0.00,0.00,12.46,0.00,0.00,0.66,19.43,0.00,4.44,2.03,11.46,0.00,0.00,1.44
0,54.47,22.86,0.00,12.19,6.76,3.50,4.50,6.78,12.11,43.33,4.50,17.41,25.81,0.00,40.00,4.52,0.00,0.00,0.00,0.00,12.33,0.00,0.00,0.65,18.90,0.00,4.44,1.98,11.18,0.00,0.00,1.40
0,55.03,24.29,0.00,12.41,6.76,3.50,4.50,6.78,12.11,43.33,4.50,17.41,25.64,0.00,41.67,4.53,0.00,0.00,0.00,0.00,12.56,0.00,0.00,0.63,18.46,0.00,4.44,1.93,11.14,0.00,0.00,1.36
0,54.73,22.86,0.00,12.29,6.76,3.50,4.50,6.78,11.68,43.33,4.00,17.41,25.62,0.00,41.67,4.60,0.00,0.00,0.00,0.00,12.06,0.00,0.00,0.62,19.00,0.00,4.44,2.12,11.60,0.00,0.00,1.53
0,55.30,22.86,0.00,12.50,7.38,4.00,5.50,7.02,9.03,33.33,2.50,13.18,25.78,0.00,38.33,4.73,0.00,0.00,0.00,0.00,12.09,0.00,0.00,0.59,19.01,0.00,4.44,2.14,11.68,0.00,0.00,1.53
0,55.88,24.29,0.00,12.83,9.07,5.00,6.50,8.67,7.57,26.67,2.50,10.41,26.16,0.00,40.00,4.56,0.00,0.00,0.00,0.00,12.20,0.00,0.00,0.60,17.92,0.00,2.22,1.88,11.00,0.00,0.00,1.46
0,59.00,24.29,3.33,14.85,11.17,6.00,8.00,11.22,7.17,23.33,2.50,10.08,26.69,0.00,43.33,4.64,0.00,0.00,0.00,0.00,12.47,0.00,0.00,0.65,18.78,0.00,2.22,1.93,10.74,0.00,0.00,1.38
0,60.13,22.86,3.33,15.22,11.30,6.00,8.00,11.25,6.89,23.33,2.50,10.01,26.47,0.00,43.33,4.30,0.00,0.00,0.00,0.00,12.78,0.00,0.00,0.71,18.75,0.00,2.22,1.96,11.42,0.00,0.00,1.56
0,58.80,21.43,3.33,15.16,11.29,6.00,8.00,11.25,6.86,23.33,2.50,10.01,26.57,0.00,45.00,4.33,0.00,0.00,0.00,0.00,12.90,0.00,0.00,0.72,19.10,0.00,2.22,2.01,11.55,0.00,0.00,1.61
0,59.98,24.29,3.33,15.56,11.29,6.00,8.00,11.25,6.86,23.33,2.50,10.01,26.77,0.00,46.67,4.50,0.00,0.00,0.00,0.00,13.06,0.00,0.00,0.73,19.23,0.00,2.22,2.07,11.54,0.00,0.00,1.61
0,59.32,22.86,3.33,15.45,11.29,6.00,8.00,11.25,6.83,23.33,2.50,10.00,27.34,0.00,48.33,4.77,0.00,0.00,0.00,0.00,13.30,0.00,0.00,0.73,19.62,0.00,2.22,2.08,11.58,0.00,0.00,1.60
0,59.94,24.29,3.33,15.93,11.29,6.00,8.00,11.25,6.84,23.33,2.50,10.01,27.87,0.00,50.00,4.89,0.00,0.00,0.00,0.00,14.09,0.00,0.00,0.80,20.41,0.00,6.67,2.21,12.09,0.00,0.00,1.66
0,60.00,24.29,3.33,16.11,9.37,5.00,7.00,9.11,5.92,20.00,2.00,9.68,28.12,0.00,51.67,4.87,0.00,0.00,0.00,0.00,14.22,0.00,0.00,0.83,20.57,0.00,6.67,2.20,12.22,0.00,0.00,1.60
0,58.02,22.86,3.33,15.68,7.58,4.00,5.00,7.21,3.36,10.00,1.00,6.27,29.39,0.00,55.00,5.06,0.00,0.00,0.00,0.00,14.34,0.00,0.00,0.87,20.82,0.00,6.67,2.22,12.32,0.00,0.00,1.59
0,56.61,21.43,3.33,15.16,5.53,3.00,4.00,4.73,1.15,3.33,0.00,0.96,30.15,0.00,58.33,5.20,0.00,0.00,0.00,0.00,14.46,0.00,0.00,0.88,20.16,0.00,6.67,2.11,12.28,0.00,0.00,1.59
0,56.70,20.00,3.33,15.14,4.99,2.50,3.50,4.48,0.45,0.00,0.00,0.01,30.17,0.00,55.00,5.32,0.00,0.00,0.00,0.00,14.31,0.00,0.00,0.91,20.18,0.00,6.67,2.15,12.08,0.00,0.00,1.51
0,58.85,21.43,3.33,16.22,4.98,2.50,3.50,4.48,0.43,0.00,0.00,0.01,29.97,0.00,53.33,5.39,0.00,0.00,0.00,0.00,14.24,0.00,0.00,0.92,20.47,0.00,6.67,2.20,12.05,0.00,0.00,1.49
0,60.03,21.43,3.33,16.45,4.99,2.50,3.50,4.48,0.43,0.00,0.00,0.01,30.81,0.00,56.67,5.73,0.00,0.00,0.00,0.00,14.16,0.00,0.00,0.90,20.52,0.00,4.44,2.12,12.33,0.00,0.00,1.53
0,60.11,22.86,3.33,16.60,5.00,2.50,3.50,4.48,0.43,0.00,0.00,0.01,31.18,0.00,56.67,5.92,0.00,0.00,0.00,0.00,14.06,0.00,0.00,0.90,21.33,0.00,4.44,2.19,12.13,0.00,0.00,1.50
0,59.63,22.86,3.33,16.49,5.00,2.50,3.50,4.48,0.43,0.00,0.00,0.01,30.23,0.00,53.33,5.68,0.00,0.00,0.00,0.00,13.99,0.00,0.00,0.92,21.06,0.00,4.44,2.16,12.10,0.00,0.00,1.49
0,61.90,27.14,3.33,17.56,4.99,2.50,3.50,4.48,0.43,0.00,0.00,0.01,30.55,0.00,55.00,5.62,0.00,0.00,0.00,0.00,13.92,0.00,0.00,0.89,20.46,0.00,4.44,2.04,12.06,0.00,0.00,1.49
0,62.43,27.14,3.33,17.29,5.00,2.50,3.50,4.48,2.81,6.67,1.00,3.47,30.13,0.00,50.00,5.77,0.00,0.00,0.00,0.00,13.84,0.00,0.00,0.89,20.60,0.00,4.44,2.15,11.87,0.00,0.00,1.40
0,60.13,24.29,3.33,16.58,5.02,2.50,3.50,4.48,5.05,16.67,2.00,7.35,30.04,0.00,50.00,5.62,0.00,0.00,0.00,0.00,14.16,0.00,0.00,0.89,20.97,0.00,4.44,2.18,12.10,0.00,0.00,1.42
0,59.26,21.43,3.33,16.37,5.02,2.50,3.50,4.48,5.73,23.33,2.00,8.23,30.30,0.00,48.33,5.66,0.00,0.00,0.00,0.00,14.21,0.00,0.00,0.91,20.70,0.00,4.44,2.10,12.46,0.00,0.00,1.49
0,59.85,22.86,6.67,16.86,5.02,2.50,3.50,4.48,5.88,23.33,2.00,8.28,30.06,0.00,48.33,5.57,0.00,0.00,0.00,0.00,14.44,0.00,0.00,0.91,20.38,0.00,4.44,1.97,12.20,0.00,0.00,1.33
0,59.33,22.86,6.67,16.72,4.59,2.00,2.50,4.39,5.89,23.33,2.00,8.28,29.70,0.00,48.33,5.43,0.00,0.00,0.00,0.00,14.88,0.00,0.00,0.98,20.37,0.00,4.44,1.95,12.67,0.00,0.00,1.56
0,59.35,24.29,6.67,16.81,3.10,1.50,1.50,2.91,5.89,23.33,2.00,8.28,29.17,0.00,46.67,5.29,0.00,0.00,0.00,0.00,14.71,0.00,0.00,0.98,20.49,0.00,4.44,1.95,12.94,0.00,0.00,1.63
0,57.18,21.43,6.67,15.17,0.76,0.00,0.00,0.25,5.89,23.33,2.00,8.28,28.75,0.00,45.00,5.38,0.00,0.00,0.00,0.00,14.27,0.00,0.00,0.92,19.89,0.00,4.44,1.90,13.27,0.00,0.00,1.65
0,57.91,24.29,10.00,15.32,0.48,0.00,0.00,0.01,6.52,26.67,2.00,8.63,28.94,0.00,45.00,5.46,0.00,0.00,0.00,0.00,13.93,0.00,0.00,0.85,19.91,0.00,4.44,1.89,12.57,0.00,0.00,1.47
0,58.04,24.29,10.00,15.02,2.37,1.00,1.00,2.07,7.96,33.33,2.50,10.39,30.45,0.00,51.67,5.73,0.00,0.00,0.00,0.00,14.07,0.00,0.00,0.86,19.12,0.00,4.44,1.77,13.05,0.00,0.00,1.59
0,57.54,22.86,10.00,15.10,3.91,2.00,2.50,3.57,10.33,40.00,3.50,14.04,29.85,0.00,45.00,5.58,0.00,0.00,0.00,0.00,14.02,0.00,0.00,0.85,18.55,0.00,4.44,1.71,12.94,0.00,0.00,1.59
0,57.57,21.43,10.00,14.92,4.66,3.00,3.50,3.99,12.11,46.67,4.50,17.77,29.26,0.00,43.33,5.22,0.00,0.00,0.00,0.00,13.61,0.00,0.00,0.82,19.06,0.00,6.67,1.84,13.44,0.00,0.00,1.68
0,56.65,20.00,10.00,14.70,4.71,3.00,3.50,4.00,12.15,46.67,4.50,17.78,29.43,0.00,41.67,5.20,0.00,0.00,0.00,0.00,13.14,0.00,0.00,0.78,17.81,0.00,2.22,1.62,13.00,0.00,0.00,1.62
0,57.03,21.43,10.00,14.47,4.71,3.00,3.50,4.00,12.15,46.67,4.50,17.78,28.76,0.00,40.00,4.98,0.00,0.00,0.00,0.00,13.03,0.00,0.00,0.77,17.63,0.00,2.22,1.65,12.37,0.00,0.00,1.54
0,58.64,21.43,10.00,14.80,4.70,3.00,3.50,4.00,12.14,46.67,4.50,17.78,28.73,0.00,36.67,5.08,0.00,0.00,0.00,0.00,12.76,0.00,0.00,0.70,17.70,0.00,2.22,1.66,12.22,0.00,0.00,1.47
0,58.81,20.00,10.00,15.36,4.71,3.00,3.50,4.00,12.15,46.67,4.50,17.78,29.49,0.00,40.00,5.31,0.00,0.00,0.00,0.00,12.82,0.00,0.00,0.73,17.43,0.00,2.22,1.62,12.37,0.00,0.00,1.50
0,58.47,20.00,10.00,15.11,4.72,3.00,3.50,4.00,12.15,46.67,4.50,17.78,28.62,0.00,40.00,5.04,0.00,0.00,0.00,0.00,13.26,0.00,0.00,0.76,18.03,0.00,2.22,1.61,12.60,0.00,0.00,1.57
0,57.77,20.00,10.00,15.04,4.71,3.00,3.50,4.00,12.15,46.67,4.50,17.78,27.94,0.00,38.33,4.87,0.00,0.00,0.00,0.00,12.75,0.00,0.00,0.70,18.01,0.00,2.22,1.56,12.50,0.00,0.00,1.55
0,60.40,25.71,16.67,15.75,4.72,3.00,3.50,4.00,12.15,46.67,4.50,17.78,27.48,0.00,36.67,4.50,0.00,0.00,0.00,0.00,12.86,0.00,0.00,0.73,17.88,0.00,2.22,1.53,12.70,0.00,0.00,1.61
0,59.56,24.29,16.67,15.87,4.71,3.00,3.50,4.00,12.15,46.67,4.50,17.78,28.58,0.00,40.00,4.95,0.00,0.00,0.00,0.00,13.21,0.00,0.00,0.77,16.92,0.00,2.22,1.42,12.90,0.00,0.00,1.64
0,60.01,24.29,16.67,15.74,4.72,3.00,3.50,4.00,12.15,46.67,4.50,17.78,28.70,0.00,40.00,4.99,0.00,0.00,0.00,0.00,13.56,0.00,0.00,0.80,17.18,0.00,2.22,1.47,13.18,0.00,0.00,1.71
0,61.50,25.71,23.33,16.35,4.71,3.00,3.50,4.00,12.16,46.67,4.50,17.78,29.35,0.00,41.67,5.29,0.00,0.00,0.00,0.00,13.70,0.00,0.00,0.81,17.57,0.00,2.22,1.53,13.23,0.00,0.00,1.76
0,59.52,22.86,23.33,15.86,5.24,3.50,4.00,4.12,10.22,40.00,3.50,14.56,28.52,0.00,40.00,4.98,0.00,0.00,0.00,0.00,13.74,0.00,0.00,0.83,16.78,0.00,2.22,1.38,13.20,0.00,0.00,1.78
0,60.90,22.86,23.33,16.09,6.77,4.50,5.00,4.91,8.12,33.33,2.50,10.75,28.60,0.00,40.00,5.05,0.00,0.00,0.00,0.00,13.46,0.00,0.00,0.83,17.17,0.00,2.22,1.42,13.36,0.00,0.00,1.87
0,63.51,27.14,26.67,17.19,8.88,5.50,7.00,8.03,7.08,26.67,2.50,9.69,28.62,0.00,40.00,5.00,0.00,0.00,0.00,0.00,13.49,0.00,0.00,0.85,17.31,0.00,2.22,1.43,13.62,0.00,0.00,1.91
0,62.87,25.71,23.33,16.91,9.57,6.00,7.00,8.66,6.70,23.33,2.50,9.52,28.76,0.00,40.00,5.10,0.00,0.00,0.00,0.00,13.97,0.00,0.00,0.98,18.03,0.00,2.22,1.62,13.66,0.00,0.00,1.95
0,63.14,25.71,23.33,17.17,9.59,6.00,7.00,8.66,6.68,23.33,2.50,9.52,29.03,0.00,40.00,5.23,0.00,0.00,0.00,0.00,13.70,0.00,0.00,0.93,18.02,0.00,2.22,1.62,13.29,0.00,0.00,1.82
0,64.28,27.14,23.33,18.51,9.61,6.00,7.00,8.66,6.69,23.33,2.50,9.52,30.08,0.00,43.33,5.46,0.00,0.00,0.00,0.00,13.58,0.00,0.00,0.92,18.18,0.00,2.22,1.64,13.03,0.00,0.00,1.84
0,65.65,30.00,20.00,18.17,9.60,6.00,7.00,8.66,6.69,23.33,2.50,9.52,29.26,0.00,40.00,5.10,0.00,0.00,0.00,0.00,13.93,0.00,0.00,0.97,18.36,0.00,2.22,1.64,13.25,0.00,0.00,1.87
0,66.85,30.00,20.00,19.31,9.58,6.00,7.00,8.66,6.19,20.00,2.50,9.22,29.39,0.00,40.00,5.05,0.00,0.00,0.00,0.00,13.83,0.00,0.00,0.98,18.38,0.00,2.22,1.62,13.27,0.00,0.00,1.89
0,65.95,30.00,20.00,19.18,8.27,5.50,6.00,7.87,4.72,13.33,2.00,7.56,27.91,0.00,33.33,4.81,0.00,0.00,0.00,0.00,13.81,0.00,0.00,0.96,18.30,0.00,2.22,1.62,12.91,0.00,0.00,1.80
0,65.15,30.00,20.00,18.78,6.49,4.50,4.50,5.35,2.69,6.67,1.00,3.99,27.81,0.00,33.33,4.80,0.00,0.00,0.00,0.00,13.88,0.00,0.00,0.97,18.43,0.00,2.22,1.64,13.07,0.00,0.00,1.88
0,65.19,30.00,20.00,18.52,5.45,3.00,3.50,4.70,0.57,0.00,0.00,0.06,27.55,0.00,33.33,4.78,0.00,0.00,0.00,0.00,14.09,0.00,0.00,0.99,17.50,0.00,0.00,1.50,12.94,0.00,0.00,1.90
0,65.65,31.43,20.00,18.69,5.35,3.00,3.50,4.67,0.43,0.00,0.00,0.01,28.15,0.00,36.67,5.07,0.00,0.00,0.00,0.00,13.64,0.00,0.00,0.97,17.79,0.00,0.00,1.55,13.06,0.00,0.00,1.90
0,68.35,32.86,20.00,20.59,5.35,3.00,3.50,4.67,0.43,0.00,0.00,0.01,27.75,0.00,35.00,5.02,0.00,0.00,0.00,0.00,13.54,0.00,0.00,0.98,17.44,0.00,0.00,1.46,13.38,0.00,0.00,2.02
0,68.25,35.71,23.33,21.18,5.35,3.00,3.50,4.67,0.44,0.00,0.00,0.01,28.81,0.00,40.00,5.20,0.00,0.00,0.00,0.00,14.55,0.00,0.00,1.17,17.55,0.00,0.00,1.46,13.62,0.00,0.00,2.10
0,67.50,35.71,23.33,20.53,5.35,3.00,3.50,4.67,0.43,0.00,0.00,0.01,28.76,0.00,41.67,5.16,0.00,0.00,0.00,0.00,14.38,0.00,0.00,1.18,17.39,0.00,0.00,1.47,13.69,0.00,0.00,2.12
0,66.48,35.71,23.33,20.25,5.34,3.00,3.50,4.67,0.43,0.00,0.00,0.01,28.85,0.00,41.67,5.06,0.00,0.00,0.00,0.00,13.98,0.00,0.00,1.17,17.00,0.00,0.00,1.44,13.60,0.00,0.00,2.19
0,65.88,34.29,23.33,19.81,5.35,3.00,3.50,4.67,0.43,0.00,0.00,0.01,29.35,0.00,45.00,5.22,0.00,0.00,0.00,0.00,14.17,0.00,0.00,1.17,17.51,0.00,2.22,1.61,13.62,0.00,0.00,2.22
0,63.03,30.00,16.67,18.84,5.34,3.00,3.50,4.67,2.33,6.67,1.00,3.12,28.98,0.00,43.33,5.21,0.00,0.00,0.00,0.00,14.23,0.00,0.00,1.15,17.59,0.00,2.22,1.60,13.46,0.00,0.00,2.20
0,62.85,30.00,16.67,18.37,5.35,3.00,3.50,4.67,3.12,13.33,1.00,3.94,27.90,0.00,40.00,4.69,0.00,0.00,0.00,0.00,13.92,0.00,0.00,1.14,18.03,0.00,2.22,1.72,13.64,0.00,0.00,2.33
0,63.53,30.00,16.67,18.35,5.35,3.00,3.50,4.67,3.21,13.33,1.00,3.98,28.67,0.00,45.00,4.70,0.00,0.00,0.00,0.00,13.68,0.00,0.00,1.09,18.13,0.00,2.22,1.72,13.56,0.00,0.00,2.34
0,60.80,24.29,10.00,17.25,5.36,3.00,3.50,4.67,3.68,16.67,1.00,4.16,28.35,0.00,45.00,4.50,0.00,0.00,0.00,0.00,13.79,0.00,0.00,1.10,17.84,0.00,2.22,1.68,13.43,0.00,0.00,2.37
0,59.70,24.29,10.00,16.81,4.93,2.50,3.00,4.56,3.69,16.67,1.00,4.17,28.91,0.00,50.00,4.60,0.00,0.00,0.00,0.00,13.51,0.00,0.00,1.07,18.00,0.00,2.22,1.69,15.47,6.67,0.00,3.41
0,62.41,30.00,10.00,18.40,4.46,2.00,2.50,4.42,3.69,16.67,1.00,4.17,31.59,0.00,51.67,5.55,0.00,0.00,0.00,0.00,14.93,3.33,0.00,1.43,18.23,0.00,4.44,1.75,20.95,16.67,16.67,10.50
0,66.66,32.86,10.00,21.79,2.26,1.00,0.50,2.47,3.69,16.67,1.00,4.17,34.45,5.00,55.00,7.71,0.00,0.00,0.00,0.00,16.26,6.67,0.00,1.78,19.99,0.00,8.89,2.14,30.39,26.67,41.67,30.28
1,72.70,37.14,23.33,25.61,0.49,0.00,0.00,0.02,3.77,16.67,1.00,4.17,41.40,25.00,60.00,14.89,0.00,0.00,0.00,0.00,20.32,13.33,5.00,4.46,20.42,0.00,13.33,2.22,38.13,43.33,66.67,42.48
1,78.10,42.86,30.00,29.37,0.45,0.00,0.00,0.01,4.61,20.00,1.00,4.99,45.72,30.00,61.67,20.91,0.00,0.00,0.00,0.00,24.17,20.00,5.00,6.64,24.57,2.22,17.78,4.48,45.60,56.67,91.67,54.36
1,80.19,47.14,30.00,29.21,1.67,0.50,0.50,0.72,6.79,30.00,2.00,8.51,47.09,35.00,60.00,21.82,0.00,0.00,0.00,0.00,28.38,30.00,10.00,8.31,26.66,2.22,24.44,5.24,51.49,63.33,116.67,61.93
1,83.39,50.00,36.67,31.55,3.06,1.50,2.50,2.60,7.08,30.00,2.00,8.87,50.69,40.00,66.67,24.08,0.00,0.00,0.00,0.00,30.70,33.33,10.00,9.27,29.16,4.44,33.33,6.25,54.10,70.00,125.00,63.96
1,85.10,51.43,40.00,31.99,3.43,2.00,2.50,2.77,7.09,30.00,2.00,8.87,53.06,45.00,73.33,26.62,0.00,0.00,0.00,0.00,34.46,43.33,10.00,10.42,33.07,6.67,42.22,7.60,57.65,76.67,125.00,66.56
1,89.24,54.29,50.00,34.58,3.44,2.00,2.50,2.77,7.09,30.00,2.00,8.87,56.74,50.00,80.00,28.40,0.00,0.00,0.00,0.00,36.02,46.67,10.00,11.48,36.66,8.89,51.11,8.85,59.92,80.00,133.33,70.71
1,91.67,55.71,50.00,35.94,3.44,2.00,2.50,2.77,7.08,30.00,2.00,8.87,61.23,65.00,85.00,31.74,0.00,0.00,0.00,0.00,44.18,63.33,25.00,15.09,39.39,11.11,57.78,10.00,61.77,83.33,133.33,71.86
1,95.06,58.57,53.33,38.93,3.44,2.00,2.50,2.77,7.08,30.00,2.00,8.87,67.81,80.00,93.33,35.59,0.00,0.00,0.00,0.00,45.62,63.33,30.00,15.87,41.49,11.11,60.00,10.73,65.11,93.33,133.33,75.88
1,96.48,58.57,53.33,39.24,3.43,2.00,2.50,2.77,7.09,30.00,2.00,8.87,74.12,95.00,98.33,39.22,0.00,0.00,0.00,0.00,47.38,63.33,30.00,16.19,43.01,11.11,64.44,11.28,68.76,100.00,141.67,80.81
1,97.17,60.00,53.33,40.06,3.43,2.00,2.50,2.77,7.10,30.00,2.00,8.87,76.01,95.00,101.67,39.83,0.00,0.00,0.00,0.00,48.89,63.33,30.00,16.50,44.39,11.11,68.89,11.49,70.63,103.33,141.67,82.13
1,99.23,62.86,53.33,40.31,3.43,2.00,2.50,2.77,7.10,30.00,2.00,8.87,75.95,95.00,101.67,40.07,0.00,0.00,0.00,0.00,49.21,63.33,30.00,16.65,44.84,11.11,68.89,11.67,73.60,110.00,141.67,86.36
1,106.19,68.57,60.00,44.79,3.42,2.00,2.50,2.77,7.10,30.00,2.00,8.87,79.26,105.00,101.67,43.05,0.00,0.00,0.00,0.00,51.00,63.33,30.00,17.49,47.34,11.11,77.78,12.31,76.51,120.00,150.00,88.09
1,110.93,71.43,66.67,48.73,3.46,2.00,2.50,2.77,7.10,30.00,2.00,8.87,80.56,110.00,101.67,43.99,0.00,0.00,0.00,0.00,52.00,63.33,30.00,17.96,48.50,11.11,80.00,12.67,78.91,126.67,150.00,89.17
1,117.48,75.71,73.33,53.18,4.73,2.50,3.50,4.06,7.10,30.00,2.00,8.87,84.27,120.00,103.33,46.87,0.00,0.00,0.00,0.00,54.96,70.00,30.00,18.94,49.78,13.33,82.22,13.34,81.05,130.00,150.00,91.34
1,123.93,80.00,83.33,59.92,5.31,3.00,3.50,4.49,5.80,26.67,1.00,7.69,89.52,125.00,111.67,49.97,0.00,0.00,0.00,0.00,56.93,73.33,30.00,19.70,52.44,17.78,86.67,14.61,86.96,140.00,158.33,100.24
1,125.55,82.86,83.33,61.65,5.32,3.00,3.50,4.49,4.60,20.00,1.00,5.04,91.02,125.00,113.33,50.96,0.00,0.00,0.00,0.00,59.76,80.00,30.00,20.71,53.84,17.78,95.56,15.46,90.56,146.67,158.33,104.82
1,130.31,87.14,90.00,65.64,5.32,3.00,3.50,4.49,4.34,16.67,1.00,4.90,92.96,125.00,116.67,51.29,0.00,0.00,0.00,0.00,61.22,80.00,30.00,21.04,56.12,20.00,100.00,16.64,93.27,153.33,166.67,105.58
1,138.83,91.43,96.67,74.27,5.32,3.00,3.50,4.49,3.90,13.33,1.00,4.73,96.51,135.00,121.67,53.55,0.00,0.00,0.00,0.00,65.45,90.00,30.00,22.68,57.36,20.00,100.00,16.93,98.32,163.33,183.33,113.24
1,143.27,95.71,103.33,77.69,5.32,3.00,3.50,4.49,3.85,13.33,1.00,4.71,99.23,135.00,123.33,55.36,0.00,0.00,0.00,0.00,67.59,93.33,30.00,23.15,59.42,20.00,106.67,17.31,100.28,166.67,183.33,118.06
1,144.22,92.86,103.33,79.73,5.33,3.00,3.50,4.49,3.85,13.33,1.00,4.71,98.99,135.00,121.67,55.23,0.00,0.00,0.00,0.00,70.21,100.00,30.00,24.39,61.10,20.00,111.11,17.62,98.05,163.33,166.67,116.20
1,142.12,91.43,103.33,77.29,5.34,3.00,3.50,4.49,3.85,13.33,1.00,4.71,100.62,140.00,125.00,55.18,0.00,0.00,0.00,0.00,71.08,100.00,30.00,24.57,60.87,20.00,108.89,17.87,91.06,156.67,150.00,102.48
1,138.48,87.14,96.67,76.33,5.34,3.00,3.50,4.49,3.85,13.33,1.00,4.71,97.35,135.00,121.67,53.40,0.00,0.00,0.00,0.00,67.93,93.33,25.00,22.39,60.56,20.00,104.44,18.06,83.77,153.33,125.00,83.26
1,139.68,84.29,96.67,78.68,5.34,3.00,3.50,4.49,3.52,13.33,1.00,4.70,94.98,130.00,125.00,45.39,0.00,0.00,0.00,0.00,65.98,90.00,25.00,20.52,59.31,17.78,102.22,17.39,82.43,153.33,116.67,77.11
1,139.28,80.00,100.00,81.11,5.34,3.00,3.50,4.49,1.35,3.33,0.00,2.45,94.82,130.00,126.67,45.01,0.00,0.00,0.00,0.00,67.19,90.00,30.00,21.97,57.16,17.78,95.56,15.92,75.52,140.00,83.33,68.12
1,137.58,77.14,96.67,80.59,3.28,2.00,1.50,2.38,0.49,0.00,0.00,0.02,95.13,130.00,128.33,44.53,0.00,0.00,0.00,0.00,66.62,86.67,30.00,21.63,56.24,17.78,93.33,15.60,73.68,136.67,75.00,67.67
1,137.09,77.14,93.33,79.93,2.37,1.00,1.00,1.72,0.44,0.00,0.00,0.01,92.19,120.00,126.67,41.14,0.00,0.00,0.00,0.00,65.86,86.67,30.00,21.19,54.14,15.56,88.89,14.57,73.06,133.33,75.00,65.51
1,133.54,74.29,80.00,79.79,2.36,1.00,1.00,1.72,1.75,6.67,0.50,1.19,92.96,120.00,128.33,41.64,0.00,0.00,0.00,0.00,64.08,80.00,30.00,20.11,50.33,13.33,77.78,13.29,70.85,133.33,66.67,61.72
1,134.35,75.71,83.33,79.03,2.37,1.00,1.00,1.72,3.02,13.33,1.00,3.93,91.02,110.00,125.00,39.69,0.00,0.00,0.00,0.00,59.45,70.00,20.00,17.65,48.18,11.11,75.56,12.34,70.41,130.00,66.67,61.04
1,136.13,80.00,86.67,80.04,2.37,1.00,1.00,1.72,3.61,20.00,1.00,4.24,85.63,90.00,120.00,36.02,0.00,0.00,0.00,0.00,56.42,63.33,10.00,15.95,49.56,11.11,82.22,12.33,68.85,123.33,66.67,58.09
1,140.78,82.86,90.00,83.12,2.38,1.00,1.00,1.72,3.66,20.00,1.00,4.26,83.07,85.00,118.33,34.64,0.00,0.00,0.00,0.00,56.20,63.33,10.00,15.97,48.43,11.11,80.00,11.98,69.52,126.67,75.00,57.06
1,142.96,85.71,93.33,85.34,2.38,1.00,1.00,1.72,3.64,20.00,1.00,4.25,82.40,85.00,118.33,34.63,0.00,0.00,0.00,0.00,57.21,70.00,15.00,16.56,48.47,11.11,80.00,12.30,68.68,123.33,75.00,55.57
1,142.56,81.43,93.33,86.99,2.40,1.00,1.00,1.72,3.65,20.00,1.00,4.25,80.93,85.00,116.67,33.91,0.00,0.00,0.00,0.00,57.46,70.00,15.00,16.47,48.28,11.11,77.78,12.16,66.65,116.67,75.00,51.90
1,140.24,77.14,93.33,85.31,2.41,1.00,1.00,1.72,3.65,20.00,1.00,4.25,78.66,80.00,113.33,32.32,0.00,0.00,0.00,0.00,56.39,70.00,15.00,15.98,48.86,11.11,75.56,12.23,64.87,106.67,66.67,50.80
1,137.38,77.14,83.33,82.55,2.41,1.00,1.00,1.72,4.90,26.67,1.50,5.57,77.88,70.00,115.00,30.75,0.00,0.00,0.00,0.00,54.87,70.00,15.00,15.17,48.45,11.11,75.56,11.89,63.90,103.33,66.67,50.83
1,135.88,77.14,80.00,81.00,3.93,2.00,1.50,3.86,7.27,33.33,2.50,9.21,72.82,60.00,108.33,27.84,0.00,0.00,0.00,0.00,52.95,63.33,15.00,14.25,48.26,8.89,77.78,11.54,62.27,96.67,66.67,48.24
1,135.60,81.43,83.33,79.35,3.82,2.00,2.50,3.34,9.05,40.00,3.50,12.94,71.28,60.00,105.00,26.70,0.00,0.00,0.00,0.00,51.80,60.00,15.00,13.68,47.29,8.89,75.56,11.33,61.34,90.00,66.67,47.67
1,135.68,81.43,90.00,77.45,3.88,2.00,2.50,3.35,9.09,40.00,3.50,12.96,68.61,55.00,105.00,24.32,0.00,0.00,0.00,0.00,49.48,53.33,15.00,12.75,43.57,4.44,64.44,9.78,55.37,86.67,58.33,36.73
1,134.98,82.86,86.67,75.48,3.87,2.00,2.50,3.35,9.09,40.00,3.50,12.96,67.25,55.00,98.33,24.23,0.00,0.00,0.00,0.00,48.94,53.33,15.00,12.59,41.94,2.22,60.00,8.80,53.41,80.00,58.33,35.00
1,132.21,82.86,86.67,72.04,3.86,2.00,2.50,3.35,9.08,40.00,3.50,12.96,65.04,55.00,90.00,23.67,0.00,0.00,0.00,0.00,46.17,43.33,15.00,11.74,41.54,2.22,62.22,8.70,49.48,66.67,41.67,29.62
1,129.80,82.86,86.67,68.13,3.85,2.00,2.50,3.35,9.08,40.00,3.50,12.96,61.42,45.00,90.00,20.73,0.00,0.00,0.00,0.00,44.80,40.00,15.00,10.97,40.41,2.22,57.78,8.59,45.48,60.00,33.33,23.77
1,129.33,82.86,90.00,66.65,3.84,2.00,2.50,3.35,9.08,40.00,3.50,12.96,59.98,45.00,90.00,19.90,0.00,0.00,0.00,0.00,42.24,33.33,15.00,9.75,39.99,2.22,55.56,8.53,42.80,50.00,33.33,21.79
1,127.98,80.00,86.67,66.25,3.84,2.00,2.50,3.35,9.08,40.00,3.50,12.96,56.22,35.00,85.00,18.06,0.00,0.00,0.00,0.00,39.74,26.67,15.00,9.10,38.34,2.22,51.11,7.72,42.32,46.67,33.33,21.38
1,128.93,84.29,90.00,64.47,3.83,2.00,2.50,3.35,9.08,40.00,3.50,12.96,52.69,25.00,85.00,16.04,0.00,0.00,0.00,0.00,39.57,26.67,15.00,9.04,39.50,2.22,57.78,8.01,42.62,43.33,33.33,21.10
1,128.35,85.71,90.00,63.92,3.83,2.00,2.50,3.35,9.08,40.00,3.50,12.96,50.35,20.00,85.00,14.63,0.00,0.00,0.00,0.00,38.80,26.67,15.00,9.03,37.93,2.22,55.56,7.48,37.37,30.00,16.67,15.52
1,125.60,85.71,93.33,57.84,4.16,2.50,2.50,3.42,9.08,40.00,3.50,12.96,49.49,20.00,86.67,14.30,0.00,0.00,0.00,0.00,33.88,16.67,5.00,5.89,37.75,2.22,55.56,7.39,35.95,26.67,16.67,14.64
1,124.61,87.14,90.00,56.37,5.86,3.50,3.50,5.03,9.08,40.00,3.50,12.96,48.51,20.00,86.67,13.88,0.00,0.00,0.00,0.00,32.29,13.33,5.00,5.12,36.86,2.22,51.11,7.17,35.27,26.67,16.67,14.32
1,122.94,84.29,90.00,56.19,8.21,4.50,5.50,7.49,9.09,40.00,3.50,12.96,47.08,15.00,81.67,13.37,0.00,0.00,0.00,0.00,31.02,10.00,5.00,4.82,35.13,0.00,48.89,6.49,35.57,26.67,16.67,14.30
1,122.39,82.86,93.33,54.78,9.98,5.50,6.50,9.97,9.10,40.00,3.50,12.96,46.15,15.00,78.33,13.44,0.00,0.00,0.00,0.00,29.95,6.67,5.00,4.37,35.82,0.00,51.11,6.61,34.87,26.67,16.67,14.09
1,121.18,81.43,90.00,53.72,10.01,5.50,6.50,9.98,6.97,30.00,2.50,9.50,43.01,10.00,75.00,11.29,0.00,0.00,0.00,0.00,30.21,10.00,5.00,4.58,36.97,0.00,51.11,6.93,33.37,23.33,16.67,12.76
1,119.26,78.57,90.00,51.82,10.01,5.50,6.50,9.98,6.06,20.00,2.50,8.83,42.38,10.00,76.67,11.17,0.00,0.00,0.00,0.00,29.87,10.00,5.00,4.55,35.43,0.00,42.22,7.24,33.52,23.33,16.67,12.94
1,116.19,77.14,86.67,51.14,10.00,5.50,6.50,9.98,5.90,20.00,2.50,8.71,41.46,10.00,76.67,10.85,0.00,0.00,0.00,0.00,29.53,10.00,5.00,4.46,35.21,0.00,37.78,6.96,31.33,16.67,0.00,11.98
1,112.12,72.86,80.00,49.38,10.00,5.50,6.50,9.98,5.88,20.00,2.50,8.71,37.93,0.00,75.00,8.07,0.00,0.00,0.00,0.00,26.95,3.33,0.00,3.47,34.24,0.00,35.56,6.43,28.80,10.00,0.00,8.47
