0,42.11,11.43,0.00,7.97,10.84,5.50,6.00,11.31,11.30,43.33,4.50,17.37,23.78,0.00,38.33,3.01,0.00,0.00,0.00,0.00,9.96,0.00,0.00,0.41,18.79,0.00,4.44,1.93,9.56,0.00,0.00,0.98
0,42.81,11.43,0.00,8.48,10.54,5.50,6.00,11.07,11.30,43.33,4.50,17.37,23.94,0.00,38.33,3.05,0.00,0.00,0.00,0.00,10.40,0.00,0.00,0.43,19.04,0.00,4.44,1.95,9.42,0.00,0.00,0.95
0,44.28,12.86,0.00,9.32,10.54,5.50,6.00,11.07,9.41,33.33,3.50,14.27,23.85,0.00,40.00,3.02,0.00,0.00,0.00,0.00,10.84,0.00,0.00,0.46,19.13,0.00,4.44,1.87,9.26,0.00,0.00,0.88
0,45.08,14.29,0.00,9.47,10.55,5.50,6.00,11.07,7.34,26.67,2.50,10.46,23.39,0.00,38.33,2.93,0.00,0.00,0.00,0.00,10.67,0.00,0.00,0.45,18.59,0.00,2.22,1.79,9.32,0.00,0.00,0.88
0,47.72,17.14,3.33,11.28,10.65,5.50,6.00,11.07,5.73,20.00,2.00,8.10,23.25,0.00,36.67,2.92,0.00,0.00,0.00,0.00,10.63,0.00,0.00,0.43,19.16,0.00,4.44,1.93,9.00,0.00,0.00,0.81
0,47.37,15.71,3.33,11.08,9.37,5.00,5.00,9.38,5.52,20.00,2.00,8.03,23.31,0.00,36.67,2.94,0.00,0.00,0.00,0.00,10.39,0.00,0.00,0.41,19.57,0.00,4.44,2.03,8.75,0.00,0.00,0.76
0,48.98,17.14,3.33,11.73,7.31,3.50,3.50,6.65,5.52,20.00,2.00,8.03,23.63,0.00,40.00,3.09,0.00,0.00,0.00,0.00,10.16,0.00,0.00,0.39,19.86,0.00,4.44,2.06,8.82,0.00,0.00,0.75
0,48.58,15.71,3.33,12.02,7.54,4.00,4.00,6.57,5.54,20.00,2.00,8.03,24.49,0.00,45.00,3.32,0.00,0.00,0.00,0.00,10.10,0.00,0.00,0.40,20.01,0.00,4.44,2.09,8.70,0.00,0.00,0.72
0,49.04,17.14,3.33,12.00,6.92,4.00,4.00,5.44,5.54,20.00,2.00,8.03,24.29,0.00,43.33,3.34,0.00,0.00,0.00,0.00,9.96,0.00,0.00,0.41,19.70,0.00,2.22,2.03,8.66,0.00,0.00,0.71
0,49.23,17.14,3.33,12.07,7.46,4.00,4.50,5.89,4.93,16.67,2.00,7.78,23.91,0.00,43.33,3.27,0.00,0.00,0.00,0.00,10.15,0.00,0.00,0.42,19.32,0.00,2.22,1.96,8.57,0.00,0.00,0.69
0,49.59,17.14,3.33,12.31,10.01,5.50,6.50,8.84,3.16,10.00,1.00,4.63,23.81,0.00,40.00,3.31,0.00,0.00,0.00,0.00,10.34,0.00,0.00,0.43,19.56,0.00,2.22,2.05,8.35,0.00,0.00,0.64
0,49.28,17.14,3.33,12.33,10.39,5.50,7.50,9.61,1.17,0.00,0.00,0.37,23.17,0.00,35.00,3.23,0.00,0.00,0.00,0.00,10.13,0.00,0.00,0.43,20.00,0.00,2.22,2.22,7.95,0.00,0.00,0.60
0,49.50,17.14,3.33,12.46,12.07,6.50,9.00,11.72,3.67,10.00,1.50,4.46,23.10,0.00,35.00,3.25,0.00,0.00,0.00,0.00,10.37,0.00,0.00,0.44,20.25,0.00,2.22,2.26,8.08,0.00,0.00,0.63
0,50.03,18.57,3.33,12.92,14.13,7.50,10.50,14.26,5.24,16.67,2.00,7.84,23.59,0.00,35.00,3.52,0.00,0.00,0.00,0.00,10.51,0.00,0.00,0.45,20.19,0.00,2.22,2.21,7.96,0.00,0.00,0.63
0,48.26,18.57,3.33,12.50,14.38,7.50,10.50,14.44,5.67,20.00,2.00,8.21,23.89,0.00,38.33,3.50,0.00,0.00,0.00,0.00,10.59,0.00,0.00,0.48,19.94,0.00,2.22,2.14,7.60,0.00,0.00,0.59
0,47.37,18.57,3.33,12.40,14.39,7.50,10.50,14.44,5.68,20.00,2.00,8.21,24.27,0.00,40.00,3.58,0.00,0.00,0.00,0.00,10.63,0.00,0.00,0.49,20.01,0.00,2.22,2.12,7.72,0.00,0.00,0.62
0,47.68,17.14,3.33,12.30,15.52,8.00,11.00,15.04,5.71,20.00,2.00,8.21,23.60,0.00,38.33,3.44,0.00,0.00,0.00,0.00,11.06,0.00,0.00,0.52,20.60,0.00,2.22,2.17,8.00,0.00,0.00,0.63
0,48.06,17.14,3.33,12.38,17.67,9.00,12.50,16.95,5.72,20.00,2.00,8.21,23.15,0.00,36.67,3.23,0.00,0.00,0.00,0.00,10.98,0.00,0.00,0.51,20.46,0.00,2.22,2.10,7.98,0.00,0.00,0.63
0,46.97,14.29,3.33,11.84,20.37,10.50,14.50,22.87,6.85,26.67,2.50,9.33,23.69,0.00,35.00,3.61,0.00,0.00,0.00,0.00,10.82,0.00,0.00,0.51,20.23,0.00,2.22,2.10,7.89,0.00,0.00,0.62
0,46.64,12.86,3.33,11.62,20.79,10.50,15.00,23.13,8.93,33.33,3.50,12.98,24.49,0.00,36.67,3.81,0.00,0.00,0.00,0.00,10.83,0.00,0.00,0.51,20.74,0.00,2.22,2.16,8.00,0.00,0.00,0.63
0,47.47,12.86,3.33,12.05,20.78,10.50,15.00,23.13,9.07,33.33,3.50,13.03,24.91,0.00,36.67,3.87,0.00,0.00,0.00,0.00,10.61,0.00,0.00,0.51,20.73,0.00,2.22,2.14,8.05,0.00,0.00,0.65
0,47.46,11.43,3.33,11.87,20.76,10.50,15.00,23.13,9.07,33.33,3.50,13.03,24.87,0.00,38.33,3.83,0.00,0.00,0.00,0.00,10.94,0.00,0.00,0.53,20.83,0.00,2.22,2.11,8.14,0.00,0.00,0.69
0,46.71,11.43,3.33,11.61,20.76,10.50,15.00,23.13,9.08,33.33,3.50,13.03,24.58,0.00,38.33,3.72,0.00,0.00,0.00,0.00,10.67,0.00,0.00,0.52,20.45,0.00,2.22,2.09,8.18,0.00,0.00,0.71
0,47.28,14.29,3.33,11.53,20.75,10.50,15.00,23.13,9.08,33.33,3.50,13.03,24.41,0.00,38.33,3.68,0.00,0.00,0.00,0.00,10.75,0.00,0.00,0.56,20.73,0.00,2.22,2.16,8.30,0.00,0.00,0.76
0,47.65,12.86,3.33,11.58,20.74,10.50,15.00,23.13,9.08,33.33,3.50,13.03,25.15,0.00,38.33,4.05,0.00,0.00,0.00,0.00,10.78,0.00,0.00,0.56,21.25,0.00,2.22,2.25,8.25,0.00,0.00,0.75
0,44.59,8.57,0.00,10.13,20.76,10.50,15.00,23.13,9.08,33.33,3.50,13.03,25.81,0.00,38.33,4.24,0.00,0.00,0.00,0.00,10.86,0.00,0.00,0.57,20.26,0.00,0.00,2.10,8.53,0.00,0.00,0.81
0,45.49,10.00,0.00,10.49,20.57,10.50,15.00,23.11,9.09,33.33,3.50,13.03,25.76,0.00,38.33,4.23,0.00,0.00,0.00,0.00,11.08,0.00,0.00,0.60,19.98,0.00,0.00,2.00,8.77,0.00,0.00,0.89
0,45.63,8.57,0.00,10.70,20.19,10.50,15.00,23.06,9.10,33.33,3.50,13.03,25.37,0.00,36.67,4.04,0.00,0.00,0.00,0.00,11.02,0.00,0.00,0.60,20.05,0.00,0.00,2.00,8.85,0.00,0.00,0.91
0,46.87,10.00,0.00,10.57,19.70,10.00,14.50,22.89,9.10,33.33,3.50,13.03,25.48,0.00,33.33,4.15,0.00,0.00,0.00,0.00,11.24,0.00,0.00,0.64,20.05,0.00,0.00,1.97,9.27,0.00,0.00,1.00
0,46.85,10.00,0.00,10.95,18.42,9.00,13.50,22.05,9.10,33.33,3.50,13.03,25.27,0.00,33.33,4.08,0.00,0.00,0.00,0.00,11.54,0.00,0.00,0.67,19.57,0.00,0.00,1.94,9.32,0.00,0.00,1.04
0,47.62,12.86,0.00,11.60,16.41,8.00,12.00,19.73,9.11,33.33,3.50,13.03,26.00,0.00,33.33,4.36,0.00,0.00,0.00,0.00,11.75,0.00,0.00,0.70,20.07,0.00,0.00,1.99,9.29,0.00,0.00,1.04
0,49.97,17.14,0.00,12.25,14.29,7.00,10.00,17.12,9.11,33.33,3.50,13.03,26.20,0.00,33.33,4.48,0.00,0.00,0.00,0.00,11.61,0.00,0.00,0.70,19.30,0.00,0.00,1.86,9.39,0.00,0.00,1.08
0,49.08,17.14,0.00,11.88,12.37,6.00,8.00,15.43,9.09,33.33,3.50,13.03,26.10,0.00,33.33,4.49,0.00,0.00,0.00,0.00,11.65,0.00,0.00,0.71,19.26,0.00,0.00,1.77,9.73,0.00,0.00,1.17
0,51.11,17.14,0.00,12.38,9.69,4.50,6.00,12.86,7.05,26.67,2.50,9.61,26.08,0.00,35.00,4.54,0.00,0.00,0.00,0.00,11.35,0.00,0.00,0.71,18.95,0.00,0.00,1.71,9.71,0.00,0.00,1.20
0,49.88,15.71,0.00,11.98,7.53,3.50,4.50,9.33,4.96,20.00,1.50,6.23,25.87,0.00,35.00,4.28,0.00,0.00,0.00,0.00,11.60,0.00,0.00,0.75,18.49,0.00,0.00,1.62,9.97,0.00,0.00,1.27
0,49.98,15.71,0.00,11.97,7.22,3.50,5.00,8.78,3.87,13.33,1.50,4.84,26.18,0.00,36.67,4.26,0.00,0.00,0.00,0.00,11.32,0.00,0.00,0.74,18.14,0.00,0.00,1.57,10.02,0.00,0.00,1.31
0,49.63,15.71,0.00,11.92,8.62,4.50,6.00,9.95,3.85,13.33,1.50,4.83,26.49,0.00,36.67,4.52,0.00,0.00,0.00,0.00,11.39,0.00,0.00,0.73,17.75,0.00,0.00,1.50,9.99,0.00,0.00,1.31
0,49.74,15.71,0.00,11.94,10.56,5.50,7.50,12.08,3.83,13.33,1.50,4.83,26.52,0.00,36.67,4.58,0.00,0.00,0.00,0.00,11.29,0.00,0.00,0.71,17.56,0.00,0.00,1.49,9.94,0.00,0.00,1.30
0,49.06,14.29,0.00,11.42,10.14,5.50,7.50,11.76,3.82,13.33,1.50,4.83,26.52,0.00,35.00,4.68,0.00,0.00,0.00,0.00,11.72,0.00,0.00,0.76,17.34,0.00,0.00,1.47,10.05,0.00,0.00,1.38
0,48.57,14.29,0.00,11.17,8.96,5.50,7.50,8.35,2.95,10.00,1.00,3.92,25.73,0.00,35.00,4.33,0.00,0.00,0.00,0.00,11.94,0.00,0.00,0.79,17.32,0.00,0.00,1.44,10.12,0.00,0.00,1.43
0,48.51,14.29,0.00,11.16,10.23,6.00,9.00,9.67,0.76,0.00,0.00,0.37,25.49,0.00,36.67,4.23,0.00,0.00,0.00,0.00,12.40,0.00,0.00,0.84,17.53,0.00,0.00,1.42,10.51,0.00,0.00,1.54
0,49.92,14.29,0.00,11.20,12.61,7.50,10.50,12.54,1.77,6.67,0.50,1.19,24.80,0.00,33.33,4.10,0.00,0.00,0.00,0.00,12.40,0.00,0.00,0.84,17.89,0.00,2.22,1.50,10.37,0.00,0.00,1.53
0,49.99,15.71,0.00,11.11,14.40,8.50,12.00,14.49,3.81,13.33,2.00,5.75,25.37,0.00,33.33,4.46,0.00,0.00,0.00,0.00,12.29,0.00,0.00,0.84,18.40,0.00,2.22,1.60,10.23,0.00,0.00,1.49
0,49.48,15.71,0.00,10.89,14.61,8.50,12.00,14.63,4.66,20.00,2.00,6.68,25.42,0.00,33.33,4.51,0.00,0.00,0.00,0.00,12.34,0.00,0.00,0.82,18.31,0.00,2.22,1.56,10.36,0.00,0.00,1.52
0,48.61,14.29,0.00,10.54,14.61,8.50,12.00,14.63,4.73,20.00,2.00,6.70,25.41,0.00,31.67,4.54,0.00,0.00,0.00,0.00,11.99,0.00,0.00,0.80,18.12,0.00,2.22,1.52,10.14,0.00,0.00,1.50
0,48.56,12.86,0.00,10.25,14.61,8.50,12.00,14.63,4.73,20.00,2.00,6.70,24.59,0.00,30.00,4.25,0.00,0.00,0.00,0.00,11.83,0.00,0.00,0.79,17.77,0.00,2.22,1.46,10.52,0.00,0.00,1.58
0,50.06,12.86,0.00,10.37,16.09,9.00,13.00,16.36,4.74,20.00,2.00,6.70,24.03,0.00,30.00,4.01,0.00,0.00,0.00,0.00,11.73,0.00,0.00,0.78,17.65,0.00,2.22,1.43,10.41,0.00,0.00,1.58
0,49.23,11.43,0.00,9.62,18.74,10.00,14.50,20.25,4.79,20.00,2.00,6.70,23.92,0.00,28.33,3.99,0.00,0.00,0.00,0.00,11.63,0.00,0.00,0.75,17.84,0.00,2.22,1.45,10.34,0.00,0.00,1.57
0,49.51,11.43,0.00,9.39,21.01,11.50,16.00,23.67,6.31,26.67,2.50,8.66,24.38,0.00,30.00,4.25,0.00,0.00,0.00,0.00,11.57,0.00,0.00,0.75,17.64,0.00,2.22,1.43,10.29,0.00,0.00,1.53
0,48.52,11.43,0.00,8.97,21.28,11.50,16.50,23.92,8.66,33.33,3.50,12.33,23.42,0.00,28.33,3.98,0.00,0.00,0.00,0.00,11.84,0.00,0.00,0.74,17.42,0.00,2.22,1.39,10.24,0.00,0.00,1.48
0,48.83,10.00,0.00,8.85,21.28,11.50,16.50,23.92,10.44,40.00,4.50,16.06,23.44,0.00,26.67,3.97,0.00,0.00,0.00,0.00,11.71,0.00,0.00,0.73,17.43,0.00,2.22,1.40,10.26,0.00,0.00,1.49
0,47.39,5.71,0.00,7.75,21.27,11.50,16.50,23.92,10.49,40.00,4.50,16.08,23.54,0.00,31.67,3.82,0.00,0.00,0.00,0.00,11.67,0.00,0.00,0.71,17.51,0.00,2.22,1.39,10.43,0.00,0.00,1.50
0,46.17,4.29,0.00,7.14,21.27,11.50,16.50,23.92,10.50,40.00,4.50,16.08,23.22,0.00,33.33,3.58,0.00,0.00,0.00,0.00,12.10,0.00,0.00,0.73,18.32,0.00,2.22,1.46,10.73,0.00,0.00,1.53
0,45.55,2.86,0.00,6.87,21.26,11.50,16.50,23.92,10.50,40.00,4.50,16.08,23.67,0.00,35.00,3.62,0.00,0.00,0.00,0.00,12.14,0.00,0.00,0.73,18.11,0.00,2.22,1.43,10.65,0.00,0.00,1.50
0,43.72,2.86,0.00,6.47,21.26,11.50,16.50,23.92,10.51,40.00,4.50,16.08,24.31,0.00,40.00,3.72,0.00,0.00,0.00,0.00,12.20,0.00,0.00,0.73,18.35,0.00,2.22,1.47,10.40,0.00,0.00,1.40
0,43.20,2.86,0.00,6.02,21.24,11.50,16.50,23.92,10.51,40.00,4.50,16.08,24.51,0.00,38.33,3.73,0.00,0.00,0.00,0.00,12.64,0.00,0.00,0.78,18.57,0.00,2.22,1.48,10.58,0.00,0.00,1.45
0,42.93,2.86,0.00,5.93,20.94,11.00,16.00,23.88,10.51,40.00,4.50,16.08,23.45,0.00,33.33,3.65,0.00,0.00,0.00,0.00,12.72,0.00,0.00,0.78,18.51,0.00,2.22,1.48,10.63,0.00,0.00,1.45
0,45.33,5.71,0.00,7.27,19.73,10.50,15.00,22.88,10.51,40.00,4.50,16.08,23.35,0.00,33.33,3.51,0.00,0.00,0.00,0.00,12.45,0.00,0.00,0.75,18.01,0.00,2.22,1.39,10.98,0.00,0.00,1.51
0,44.36,5.71,0.00,6.99,17.62,9.00,13.50,20.70,10.51,40.00,4.50,16.08,22.94,0.00,31.67,3.31,0.00,0.00,0.00,0.00,12.49,0.00,0.00,0.76,17.87,0.00,2.22,1.40,10.99,0.00,0.00,1.54
0,43.47,5.71,0.00,6.98,16.07,8.00,12.00,19.22,10.51,40.00,4.50,16.08,23.32,0.00,33.33,3.32,0.00,0.00,0.00,0.00,12.33,0.00,0.00,0.75,17.46,0.00,2.22,1.35,11.05,0.00,0.00,1.52
0,44.27,5.71,0.00,7.08,14.67,7.00,10.00,18.05,10.51,40.00,4.50,16.08,24.22,0.00,36.67,3.51,0.00,0.00,0.00,0.00,12.16,0.00,0.00,0.74,17.59,0.00,2.22,1.35,10.80,0.00,0.00,1.47
0,43.99,5.71,0.00,7.21,12.52,6.00,8.00,16.09,10.51,40.00,4.50,16.08,23.93,0.00,35.00,3.42,0.00,0.00,0.00,0.00,12.19,0.00,0.00,0.69,18.01,0.00,2.22,1.42,11.09,0.00,0.00,1.42
0,43.08,5.71,0.00,7.00,9.62,4.50,6.00,12.86,10.51,40.00,4.50,16.08,24.42,0.00,38.33,3.54,0.00,0.00,0.00,0.00,12.14,0.00,0.00,0.69,17.80,0.00,0.00,1.43,11.30,0.00,0.00,1.48
0,42.29,5.71,0.00,6.77,7.64,3.50,4.50,9.77,8.18,30.00,3.00,12.62,24.35,0.00,40.00,3.42,0.00,0.00,0.00,0.00,12.30,0.00,0.00,0.69,17.50,0.00,0.00,1.40,11.51,0.00,0.00,1.52
0,42.63,5.71,0.00,7.06,7.41,3.50,5.00,9.38,6.46,20.00,2.50,9.56,23.76,0.00,38.33,3.17,0.00,0.00,0.00,0.00,12.22,0.00,0.00,0.69,17.58,0.00,0.00,1.40,11.41,0.00,0.00,1.49
0,43.39,7.14,0.00,7.42,8.64,4.50,6.00,10.28,6.26,20.00,2.50,9.39,24.21,0.00,38.33,3.40,0.00,0.00,0.00,0.00,12.91,0.00,0.00,0.73,17.53,0.00,0.00,1.38,11.76,0.00,0.00,1.55
0,42.69,7.14,0.00,7.34,9.81,5.50,7.00,11.09,6.26,20.00,2.50,9.39,24.76,0.00,41.67,3.45,0.00,0.00,0.00,0.00,12.92,0.00,0.00,0.73,17.28,0.00,0.00,1.38,11.59,0.00,0.00,1.50
0,40.81,7.14,0.00,6.95,11.75,6.50,8.50,13.50,6.26,20.00,2.50,9.39,25.15,0.00,41.67,3.49,0.00,0.00,0.00,0.00,12.60,0.00,0.00,0.71,17.55,0.00,0.00,1.45,11.63,0.00,0.00,1.46
0,40.34,7.14,0.00,6.85,12.23,6.50,9.00,13.68,6.20,20.00,2.50,9.39,24.89,0.00,41.67,3.44,0.00,0.00,0.00,0.00,12.91,0.00,0.00,0.72,17.68,0.00,0.00,1.50,11.69,0.00,0.00,1.47
0,39.10,7.14,0.00,6.59,10.17,6.00,7.50,10.22,4.77,13.33,2.00,7.60,25.06,0.00,41.67,3.33,0.00,0.00,0.00,0.00,12.98,0.00,0.00,0.73,18.06,0.00,0.00,1.57,11.87,0.00,0.00,1.51
0,39.02,8.57,0.00,7.02,9.35,5.50,7.00,9.17,2.77,6.67,1.00,4.01,24.92,0.00,43.33,3.30,0.00,0.00,0.00,0.00,12.78,0.00,0.00,0.70,18.56,0.00,0.00,1.61,11.74,0.00,0.00,1.49
0,39.33,8.57,0.00,7.24,9.70,6.00,7.50,9.26,2.17,3.33,1.00,2.69,25.02,0.00,43.33,3.30,0.00,0.00,0.00,0.00,12.42,0.00,0.00,0.69,18.28,0.00,0.00,1.61,11.66,0.00,0.00,1.46
0,38.06,8.57,0.00,6.81,9.75,6.00,7.50,9.26,3.30,13.33,1.00,4.09,24.33,0.00,40.00,3.23,0.00,0.00,0.00,0.00,12.16,0.00,0.00,0.68,18.22,0.00,0.00,1.59,11.39,0.00,0.00,1.44
0,37.77,8.57,0.00,6.88,10.18,6.00,7.50,9.26,3.46,13.33,1.00,4.17,24.14,0.00,38.33,3.22,0.00,0.00,0.00,0.00,11.51,0.00,0.00,0.62,17.67,0.00,0.00,1.55,11.12,0.00,0.00,1.36
0,38.64,8.57,0.00,7.05,11.90,7.00,8.50,11.57,3.48,13.33,1.00,4.17,23.79,0.00,38.33,3.20,0.00,0.00,0.00,0.00,11.26,0.00,0.00,0.60,18.22,0.00,0.00,1.61,11.16,0.00,0.00,1.42
0,39.86,10.00,0.00,7.65,11.94,7.00,8.50,11.58,3.48,13.33,1.00,4.17,23.17,0.00,35.00,3.00,0.00,0.00,0.00,0.00,11.26,0.00,0.00,0.59,18.21,0.00,0.00,1.67,11.42,0.00,0.00,1.46
0,39.00,10.00,0.00,7.88,13.32,7.50,9.50,13.08,3.47,13.33,1.00,4.17,23.13,0.00,38.33,3.03,0.00,0.00,0.00,0.00,10.68,0.00,0.00,0.50,18.70,0.00,0.00,1.71,11.04,0.00,0.00,1.34
0,41.32,11.43,0.00,8.79,14.36,8.50,10.50,13.79,4.01,16.67,1.00,4.42,23.74,0.00,40.00,3.15,0.00,0.00,0.00,0.00,10.82,0.00,0.00,0.50,18.44,0.00,0.00,1.69,11.32,0.00,0.00,1.37
0,38.56,8.57,0.00,7.54,14.45,8.50,10.50,13.81,6.39,23.33,2.00,7.94,23.07,0.00,38.33,3.06,0.00,0.00,0.00,0.00,10.90,0.00,0.00,0.49,18.89,0.00,0.00,1.73,10.92,0.00,0.00,1.28
0,38.95,8.57,0.00,7.65,14.44,8.50,10.50,13.81,9.31,33.33,3.50,12.84,23.38,0.00,40.00,3.17,0.00,0.00,0.00,0.00,11.06,0.00,0.00,0.51,19.62,0.00,0.00,1.93,10.88,0.00,0.00,1.23
0,39.67,10.00,0.00,7.91,14.43,8.50,10.50,13.81,10.19,36.67,4.00,15.42,23.54,0.00,40.00,3.33,0.00,0.00,0.00,0.00,10.99,0.00,0.00,0.50,20.22,0.00,0.00,2.01,10.78,0.00,0.00,1.26
0,38.32,10.00,0.00,7.74,14.42,8.50,10.50,13.81,10.22,36.67,4.00,15.43,22.65,0.00,36.67,3.17,0.00,0.00,0.00,0.00,10.79,0.00,0.00,0.45,20.38,0.00,0.00,2.05,10.73,0.00,0.00,1.25
0,39.80,11.43,0.00,8.26,14.42,8.50,10.50,13.81,10.23,36.67,4.00,15.43,22.38,0.00,35.00,3.16,0.00,0.00,0.00,0.00,11.02,0.00,0.00,0.47,20.25,0.00,0.00,2.08,10.64,0.00,0.00,1.26
0,40.61,11.43,0.00,8.37,14.41,8.50,10.50,13.81,10.24,36.67,4.00,15.43,22.85,0.00,36.67,3.26,0.00,0.00,0.00,0.00,10.63,0.00,0.00,0.45,19.65,0.00,0.00,2.03,10.28,0.00,0.00,1.18
0,41.09,11.43,0.00,8.41,14.41,8.50,10.50,13.81,10.23,36.67,4.00,15.43,22.56,0.00,36.67,3.06,0.00,0.00,0.00,0.00,10.54,0.00,0.00,0.45,19.35,0.00,0.00,1.94,10.17,0.00,0.00,1.16
0,41.45,11.43,0.00,8.75,14.15,8.00,10.00,13.78,10.23,36.67,4.00,15.43,23.26,0.00,38.33,3.23,0.00,0.00,0.00,0.00,10.42,0.00,0.00,0.44,20.07,0.00,0.00,2.11,9.89,0.00,0.00,1.09
0,40.63,10.00,0.00,8.26,13.08,7.50,9.00,13.00,10.23,36.67,4.00,15.43,23.37,0.00,36.67,3.31,0.00,0.00,0.00,0.00,9.81,0.00,0.00,0.40,20.57,0.00,0.00,2.25,9.50,0.00,0.00,1.02
0,40.67,10.00,0.00,8.24,11.72,6.00,8.00,12.07,10.22,36.67,4.00,15.43,22.64,0.00,38.33,3.09,0.00,0.00,0.00,0.00,9.66,0.00,0.00,0.39,20.12,0.00,0.00,2.22,9.49,0.00,0.00,1.01
0,41.72,10.00,0.00,8.75,9.71,5.00,6.50,9.77,10.25,36.67,4.00,15.43,22.53,0.00,38.33,3.10,0.00,0.00,0.00,0.00,9.72,0.00,0.00,0.39,20.10,0.00,0.00,2.18,9.28,0.00,0.00,0.96
0,41.85,11.43,0.00,8.95,7.60,4.00,4.50,7.16,10.26,36.67,4.00,15.43,23.18,0.00,41.67,3.24,0.00,0.00,0.00,0.00,9.71,0.00,0.00,0.40,19.99,0.00,0.00,2.13,9.32,0.00,0.00,0.96
0,42.83,11.43,0.00,9.16,5.50,3.00,3.50,4.66,10.26,36.67,4.00,15.43,22.78,0.00,40.00,3.13,0.00,0.00,0.00,0.00,9.62,0.00,0.00,0.37,20.02,0.00,0.00,2.13,8.91,0.00,0.00,0.88
0,43.30,12.86,0.00,9.50,5.45,3.00,3.50,4.65,10.26,36.67,4.00,15.43,23.08,0.00,40.00,3.17,0.00,0.00,0.00,0.00,9.97,0.00,0.00,0.38,20.05,0.00,2.22,2.25,8.88,0.00,0.00,0.84
0,43.67,12.86,0.00,9.36,5.16,2.50,3.00,4.58,9.79,36.67,3.50,15.42,23.36,0.00,43.33,3.29,0.00,0.00,0.00,0.00,10.09,0.00,0.00,0.39,20.12,0.00,2.22,2.30,8.59,0.00,0.00,0.82
0,44.59,12.86,0.00,9.80,5.16,2.50,3.00,4.57,7.70,26.67,3.00,11.80,23.36,0.00,41.67,3.28,0.00,0.00,0.00,0.00,10.25,0.00,0.00,0.38,20.12,0.00,2.22,2.32,8.53,0.00,0.00,0.80
0,47.02,14.29,0.00,10.44,5.35,2.50,3.00,4.59,7.29,23.33,3.00,11.27,24.05,0.00,41.67,3.43,0.00,0.00,0.00,0.00,10.25,0.00,0.00,0.38,19.75,0.00,2.22,2.24,8.69,0.00,0.00,0.82
0,48.39,14.29,0.00,11.07,3.93,2.00,3.00,2.54,7.25,23.33,3.00,11.27,23.59,0.00,38.33,3.41,0.00,0.00,0.00,0.00,10.41,0.00,0.00,0.39,20.02,0.00,2.22,2.26,8.66,0.00,0.00,0.76
0,47.53,12.86,0.00,10.72,4.45,2.50,3.50,2.65,7.24,23.33,3.00,11.27,23.29,0.00,36.67,3.39,0.00,0.00,0.00,0.00,9.71,0.00,0.00,0.35,19.96,0.00,2.22,2.19,8.40,0.00,0.00,0.72
0,49.15,14.29,0.00,10.93,6.03,4.00,5.00,3.90,7.24,23.33,3.00,11.27,24.18,0.00,36.67,3.65,0.00,0.00,0.00,0.00,9.64,0.00,0.00,0.35,19.98,0.00,2.22,2.28,8.36,0.00,0.00,0.69
0,47.41,12.86,0.00,10.52,5.68,3.50,5.50,3.81,6.74,20.00,3.00,11.04,24.20,0.00,36.67,3.73,0.00,0.00,0.00,0.00,9.39,0.00,0.00,0.34,20.10,0.00,2.22,2.29,8.14,0.00,0.00,0.67
0,48.32,15.71,0.00,10.68,7.60,5.00,7.00,6.01,4.77,13.33,2.00,7.73,24.34,0.00,36.67,3.74,0.00,0.00,0.00,0.00,9.54,0.00,0.00,0.35,19.84,0.00,2.22,2.25,8.10,0.00,0.00,0.66
0,49.69,17.14,0.00,11.21,9.60,6.00,8.50,8.40,2.65,6.67,1.00,3.80,24.12,0.00,36.67,3.69,0.00,0.00,0.00,0.00,9.24,0.00,0.00,0.32,19.43,0.00,2.22,2.10,8.10,0.00,0.00,0.66
0,49.98,17.14,0.00,11.46,11.73,7.00,10.00,11.01,2.45,6.67,1.00,3.13,24.48,0.00,40.00,3.67,0.00,0.00,0.00,0.00,9.31,0.00,0.00,0.33,19.62,0.00,2.22,2.08,8.01,0.00,0.00,0.63
0,50.15,17.14,0.00,11.59,13.83,8.00,11.50,13.51,3.67,13.33,1.00,4.76,24.53,0.00,40.00,3.58,0.00,0.00,0.00,0.00,9.33,0.00,0.00,0.36,19.57,0.00,2.22,2.11,7.95,0.00,0.00,0.61
0,49.78,17.14,0.00,11.63,13.90,8.00,11.50,13.52,3.81,13.33,1.00,4.86,24.48,0.00,41.67,3.52,0.00,0.00,0.00,0.00,9.66,0.00,0.00,0.38,20.23,0.00,4.44,2.23,7.64,0.00,0.00,0.54
0,50.47,20.00,0.00,12.08,13.90,8.00,11.50,13.52,3.80,13.33,1.00,4.86,24.71,0.00,40.00,3.75,0.00,0.00,0.00,0.00,9.65,0.00,0.00,0.41,20.35,0.00,4.44,2.22,7.68,0.00,0.00,0.55
0,50.69,20.00,0.00,12.33,15.79,9.00,12.50,15.59,3.80,13.33,1.00,4.86,24.58,0.00,38.33,3.78,0.00,0.00,0.00,0.00,10.10,0.00,0.00,0.42,20.03,0.00,4.44,2.16,7.80,0.00,0.00,0.57
0,51.36,21.43,0.00,12.48,17.21,10.50,14.00,16.66,3.79,13.33,1.00,4.86,25.31,0.00,41.67,3.99,0.00,0.00,0.00,0.00,9.99,0.00,0.00,0.42,19.74,0.00,4.44,2.04,7.94,0.00,0.00,0.58
0,50.92,21.43,0.00,12.31,17.40,10.50,14.00,16.78,5.46,20.00,1.50,6.47,24.96,0.00,43.33,3.86,0.00,0.00,0.00,0.00,9.98,0.00,0.00,0.42,19.45,0.00,4.44,1.97,8.08,0.00,0.00,0.60
0,51.68,21.43,0.00,12.28,17.40,10.50,14.00,16.78,8.03,30.00,2.50,9.93,24.13,0.00,38.33,3.75,0.00,0.00,0.00,0.00,9.92,0.00,0.00,0.42,19.41,0.00,4.44,1.93,8.18,0.00,0.00,0.60
0,52.50,22.86,0.00,13.27,17.38,10.50,14.00,16.78,8.87,33.33,3.00,12.43,24.44,0.00,40.00,3.84,0.00,0.00,0.00,0.00,10.06,0.00,0.00,0.44,19.55,0.00,4.44,1.99,7.98,0.00,0.00,0.57
0,53.05,22.86,0.00,13.39,17.38,10.50,14.00,16.78,8.89,33.33,3.00,12.44,24.36,0.00,38.33,3.84,0.00,0.00,0.00,0.00,10.15,0.00,0.00,0.44,20.08,0.00,4.44,2.11,8.08,0.00,0.00,0.58
0,54.18,24.29,0.00,14.08,17.37,10.50,14.00,16.78,8.89,33.33,3.00,12.44,24.60,0.00,36.67,3.92,0.00,0.00,0.00,0.00,10.49,0.00,0.00,0.47,20.27,0.00,4.44,2.14,8.16,0.00,0.00,0.61
0,55.14,25.71,0.00,14.41,17.36,10.50,14.00,16.78,8.90,33.33,3.00,12.44,24.93,0.00,40.00,4.00,0.00,0.00,0.00,0.00,10.20,0.00,0.00,0.47,20.29,0.00,2.22,2.08,8.16,0.00,0.00,0.60
0,53.69,24.29,0.00,13.63,17.37,10.50,14.00,16.78,8.90,33.33,3.00,12.44,24.92,0.00,38.33,4.07,0.00,0.00,0.00,0.00,10.40,0.00,0.00,0.50,20.92,0.00,6.67,2.11,8.21,0.00,0.00,0.63
0,55.44,25.71,0.00,13.89,17.27,10.50,14.00,16.77,8.89,33.33,3.00,12.44,25.52,0.00,41.67,4.17,0.00,0.00,0.00,0.00,10.72,0.00,0.00,0.56,21.24,0.00,8.89,2.14,8.85,0.00,0.00,0.77
0,54.59,25.71,0.00,13.69,17.09,10.50,14.00,16.74,8.88,33.33,3.00,12.44,25.92,0.00,43.33,4.20,0.00,0.00,0.00,0.00,11.01,0.00,0.00,0.59,22.17,0.00,11.11,2.29,8.76,0.00,0.00,0.77
0,53.30,24.29,0.00,13.28,16.48,10.00,13.00,16.53,8.89,33.33,3.00,12.44,26.60,0.00,45.00,4.46,0.00,0.00,0.00,0.00,11.59,0.00,0.00,0.64,22.69,0.00,13.33,2.46,8.99,0.00,0.00,0.80
0,53.33,24.29,0.00,13.34,15.99,9.50,12.50,16.37,8.89,33.33,3.00,12.44,27.06,0.00,45.00,4.61,0.00,0.00,0.00,0.00,12.38,0.00,0.00,0.71,22.74,0.00,13.33,2.49,9.16,0.00,0.00,0.84
0,54.72,25.71,0.00,14.22,14.94,8.50,11.00,15.74,8.89,33.33,3.00,12.44,26.63,0.00,43.33,4.48,0.00,0.00,0.00,0.00,12.79,0.00,0.00,0.75,22.44,0.00,13.33,2.41,9.10,0.00,0.00,0.86
0,54.18,24.29,0.00,14.30,12.96,7.50,9.00,13.81,8.90,33.33,3.00,12.44,26.48,0.00,41.67,4.43,0.00,0.00,0.00,0.00,13.34,0.00,0.00,0.80,22.72,0.00,13.33,2.41,9.49,0.00,0.00,1.00
0,52.66,21.43,0.00,14.04,10.70,6.00,7.00,12.16,8.90,33.33,3.00,12.44,26.58,0.00,43.33,4.44,0.00,0.00,0.00,0.00,13.30,0.00,0.00,0.81,22.66,0.00,13.33,2.41,9.64,0.00,0.00,1.04
0,51.49,20.00,0.00,13.50,8.57,5.00,5.50,8.81,8.90,33.33,3.00,12.44,26.52,0.00,43.33,4.38,0.00,0.00,0.00,0.00,13.73,0.00,0.00,0.85,22.88,0.00,15.56,2.52,9.52,0.00,0.00,1.03
0,50.90,18.57,0.00,13.07,6.16,3.50,4.00,5.98,7.59,30.00,2.00,11.26,26.82,0.00,40.00,4.56,0.00,0.00,0.00,0.00,14.10,0.00,0.00,0.92,23.20,0.00,15.56,2.62,9.58,0.00,0.00,1.06
0,52.01,18.57,0.00,13.79,4.09,2.50,2.50,3.43,6.02,23.33,2.00,7.95,27.86,0.00,43.33,4.89,0.00,0.00,0.00,0.00,13.86,0.00,0.00,0.90,23.16,0.00,15.56,2.60,9.81,0.00,0.00,1.10
0,51.73,17.14,0.00,13.82,4.80,3.50,3.50,3.76,5.58,20.00,2.00,7.59,28.25,0.00,43.33,5.08,0.00,0.00,0.00,0.00,13.74,0.00,0.00,0.89,22.42,0.00,13.33,2.44,10.05,0.00,0.00,1.13
0,50.72,14.29,0.00,13.28,6.19,4.50,5.00,4.57,5.58,20.00,2.00,7.59,27.63,0.00,41.67,4.84,0.00,0.00,0.00,0.00,13.72,0.00,0.00,0.88,22.88,0.00,13.33,2.46,10.03,0.00,0.00,1.16
0,49.68,14.29,0.00,12.98,7.05,5.50,6.00,5.47,5.58,20.00,2.00,7.59,26.87,0.00,40.00,4.69,0.00,0.00,0.00,0.00,13.98,0.00,0.00,0.91,23.01,0.00,13.33,2.52,10.62,0.00,0.00,1.29
0,48.91,14.29,0.00,12.71,7.51,5.00,6.50,6.63,5.58,20.00,2.00,7.59,26.22,0.00,36.67,4.40,0.00,0.00,0.00,0.00,14.21,0.00,0.00,0.93,23.31,0.00,15.56,2.59,10.73,0.00,0.00,1.32
0,46.91,11.43,0.00,12.31,7.63,5.00,6.50,6.55,4.26,13.33,1.50,6.08,25.74,0.00,36.67,4.33,0.00,0.00,0.00,0.00,14.61,0.00,0.00,0.96,23.64,0.00,17.78,2.69,10.86,0.00,0.00,1.33
0,48.27,12.86,0.00,12.93,7.63,5.00,6.50,6.55,2.61,6.67,1.00,3.72,26.91,0.00,36.67,4.67,0.00,0.00,0.00,0.00,14.93,0.00,0.00,0.99,23.74,0.00,17.78,2.68,11.01,0.00,0.00,1.37
0,46.80,11.43,0.00,11.90,9.67,6.00,7.50,8.83,2.39,6.67,1.00,3.11,26.62,0.00,35.00,4.67,0.00,0.00,0.00,0.00,14.98,0.00,0.00,0.98,23.57,0.00,17.78,2.64,11.07,0.00,0.00,1.38
0,46.33,11.43,0.00,11.34,9.81,6.00,7.50,8.86,2.99,10.00,1.00,3.77,26.46,0.00,33.33,4.57,0.00,0.00,0.00,0.00,14.82,0.00,0.00,0.97,22.74,0.00,17.78,2.52,11.19,0.00,0.00,1.42
0,45.81,11.43,0.00,11.24,9.83,6.00,7.50,8.86,3.06,10.00,1.00,3.80,26.62,0.00,35.00,4.46,0.00,0.00,0.00,0.00,14.83,0.00,0.00,1.01,22.76,0.00,17.78,2.49,11.51,0.00,0.00,1.51
0,43.46,10.00,0.00,10.44,11.32,6.50,8.50,10.60,3.05,10.00,1.00,3.79,25.74,0.00,31.67,4.35,0.00,0.00,0.00,0.00,14.66,0.00,0.00,0.98,21.89,0.00,17.78,2.33,11.59,0.00,0.00,1.54
0,44.21,11.43,0.00,10.50,13.41,8.00,10.00,12.88,3.06,10.00,1.00,3.79,25.14,0.00,28.33,4.27,0.00,0.00,0.00,0.00,14.41,0.00,0.00,0.96,21.03,0.00,13.33,2.29,11.42,0.00,0.00,1.53
0,42.58,8.57,0.00,10.23,14.27,9.00,10.00,13.55,3.06,10.00,1.00,3.79,25.72,0.00,28.33,4.51,0.00,0.00,0.00,0.00,14.16,0.00,0.00,0.91,20.65,0.00,11.11,2.23,11.15,0.00,0.00,1.41
0,41.40,8.57,0.00,9.68,14.33,9.00,10.00,13.56,4.95,16.67,1.50,5.84,24.58,0.00,26.67,4.22,0.00,0.00,0.00,0.00,13.95,0.00,0.00,0.90,19.98,0.00,8.89,2.09,11.21,0.00,0.00,1.43
0,42.13,10.00,0.00,9.68,14.33,9.00,10.00,13.56,7.74,26.67,3.00,10.15,24.74,0.00,30.00,4.07,0.00,0.00,0.00,0.00,13.75,0.00,0.00,0.88,19.72,0.00,6.67,1.98,10.89,0.00,0.00,1.39
0,41.79,11.43,0.00,9.47,14.33,9.00,10.00,13.56,8.61,30.00,3.50,12.70,24.33,0.00,28.33,3.92,0.00,0.00,0.00,0.00,13.30,0.00,0.00,0.85,19.52,0.00,6.67,1.95,10.98,0.00,0.00,1.39
0,39.82,10.00,0.00,8.68,14.32,9.00,10.00,13.56,8.64,30.00,3.50,12.71,24.25,0.00,30.00,3.93,0.00,0.00,0.00,0.00,13.16,0.00,0.00,0.80,19.84,0.00,6.67,2.04,11.24,0.00,0.00,1.41
0,40.58,10.00,0.00,8.52,14.33,9.00,10.00,13.56,8.64,30.00,3.50,12.71,24.06,0.00,31.67,3.90,0.00,0.00,0.00,0.00,13.18,0.00,0.00,0.80,20.00,0.00,6.67,2.09,10.87,0.00,0.00,1.34
0,39.70,10.00,0.00,8.10,14.33,9.00,10.00,13.56,8.64,30.00,3.50,12.71,24.26,0.00,30.00,4.10,0.00,0.00,0.00,0.00,13.02,0.00,0.00,0.78,19.94,0.00,6.67,2.09,10.58,0.00,0.00,1.25
0,39.10,10.00,0.00,7.82,14.33,9.00,10.00,13.56,8.63,30.00,3.50,12.71,24.24,0.00,28.33,4.06,0.00,0.00,0.00,0.00,13.12,0.00,0.00,0.80,19.50,0.00,4.44,1.98,10.85,0.00,0.00,1.32
0,38.73,10.00,0.00,7.64,14.33,9.00,10.00,13.56,8.63,30.00,3.50,12.71,23.58,0.00,28.33,3.75,0.00,0.00,0.00,0.00,13.03,0.00,0.00,0.79,18.93,0.00,4.44,1.88,10.96,0.00,0.00,1.38
0,39.27,10.00,0.00,7.39,14.33,9.00,10.00,13.56,8.66,30.00,3.50,12.71,23.11,0.00,26.67,3.70,0.00,0.00,0.00,0.00,13.34,0.00,0.00,0.81,18.12,0.00,4.44,1.76,10.95,0.00,0.00,1.42
0,39.02,10.00,0.00,6.77,13.44,8.00,9.00,13.10,8.66,30.00,3.50,12.71,22.27,0.00,25.00,3.37,0.00,0.00,0.00,0.00,13.37,0.00,0.00,0.81,18.23,0.00,4.44,1.75,10.91,0.00,0.00,1.44
0,39.06,10.00,0.00,6.80,12.28,7.00,8.00,12.30,8.66,30.00,3.50,12.71,23.85,0.00,28.33,3.82,0.00,0.00,0.00,0.00,13.61,0.00,0.00,0.84,18.23,0.00,4.44,1.83,10.92,0.00,0.00,1.44
0,40.66,10.00,0.00,7.09,10.82,6.00,6.00,11.06,8.66,30.00,3.50,12.71,24.21,0.00,30.00,3.94,0.00,0.00,0.00,0.00,13.16,0.00,0.00,0.79,17.50,0.00,4.44,1.67,10.44,0.00,0.00,1.28
0,41.22,10.00,0.00,7.24,8.84,5.00,4.00,9.47,8.68,30.00,3.50,12.71,23.69,0.00,30.00,3.86,0.00,0.00,0.00,0.00,13.05,0.00,0.00,0.81,16.51,0.00,2.22,1.47,10.52,0.00,0.00,1.31
0,42.31,11.43,0.00,7.96,7.07,4.00,3.50,7.02,8.70,30.00,3.50,12.71,24.55,0.00,33.33,4.00,0.00,0.00,0.00,0.00,13.05,0.00,0.00,0.81,16.54,0.00,0.00,1.44,10.48,0.00,0.00,1.36
0,41.09,10.00,0.00,7.47,7.03,4.00,3.50,7.01,8.69,30.00,3.50,12.71,24.40,0.00,35.00,3.89,0.00,0.00,0.00,0.00,12.90,0.00,0.00,0.80,16.65,0.00,0.00,1.46,10.15,0.00,0.00,1.32
0,41.79,10.00,0.00,7.56,5.15,3.00,2.50,4.94,7.40,26.67,2.50,11.54,23.89,0.00,35.00,3.72,0.00,0.00,0.00,0.00,12.76,0.00,0.00,0.82,16.72,0.00,0.00,1.42,10.19,0.00,0.00,1.35
0,42.13,10.00,0.00,7.76,5.49,3.50,3.50,4.94,6.30,20.00,2.50,9.02,24.37,0.00,38.33,3.87,0.00,0.00,0.00,0.00,13.17,0.00,0.00,0.85,17.41,0.00,0.00,1.50,9.97,0.00,0.00,1.34
0,41.29,7.14,0.00,7.47,6.56,4.50,4.50,5.59,6.09,20.00,2.50,8.92,24.25,0.00,38.33,3.90,0.00,0.00,0.00,0.00,13.21,0.00,0.00,0.85,17.06,0.00,0.00,1.49,9.85,0.00,0.00,1.28
0,41.52,7.14,0.00,7.56,8.50,5.50,6.00,7.99,6.08,20.00,2.50,8.92,24.47,0.00,38.33,3.95,0.00,0.00,0.00,0.00,13.53,0.00,0.00,0.87,17.15,0.00,0.00,1.48,9.98,0.00,0.00,1.32
0,41.46,5.71,0.00,7.47,9.30,5.50,6.50,8.88,6.08,20.00,2.50,8.92,24.85,0.00,40.00,4.01,0.00,0.00,0.00,0.00,13.42,0.00,0.00,0.86,17.32,0.00,0.00,1.46,9.88,0.00,0.00,1.30
0,42.10,7.14,0.00,7.59,9.31,5.00,8.00,9.26,6.07,20.00,2.50,8.92,25.02,0.00,40.00,3.94,0.00,0.00,0.00,0.00,13.69,0.00,0.00,0.90,17.63,0.00,0.00,1.47,10.17,0.00,0.00,1.38
0,41.23,5.71,0.00,7.38,11.43,6.50,9.50,11.75,4.59,13.33,2.00,7.02,25.82,0.00,43.33,4.02,0.00,0.00,0.00,0.00,13.85,0.00,0.00,0.89,17.90,0.00,0.00,1.50,10.16,0.00,0.00,1.37
0,41.70,5.71,0.00,7.54,13.50,7.50,11.00,14.30,2.64,6.67,1.00,3.77,25.87,0.00,41.67,4.09,0.00,0.00,0.00,0.00,13.80,0.00,0.00,0.90,17.27,0.00,0.00,1.42,10.05,0.00,0.00,1.37
0,42.04,5.71,0.00,7.67,15.39,8.50,12.50,16.42,2.43,6.67,1.00,3.13,26.22,0.00,41.67,4.18,0.00,0.00,0.00,0.00,13.74,0.00,0.00,0.88,16.94,0.00,0.00,1.40,10.02,0.00,0.00,1.36
0,43.15,4.29,0.00,7.57,15.52,8.50,12.50,16.44,3.88,13.33,1.50,5.26,25.70,0.00,41.67,3.99,0.00,0.00,0.00,0.00,13.52,0.00,0.00,0.87,16.29,0.00,0.00,1.30,9.65,0.00,0.00,1.35
0,43.22,4.29,0.00,7.67,15.51,8.50,12.50,16.44,4.05,13.33,1.50,5.41,26.09,0.00,43.33,3.99,0.00,0.00,0.00,0.00,13.33,0.00,0.00,0.86,16.63,0.00,0.00,1.32,9.76,0.00,0.00,1.34
0,43.53,4.29,0.00,7.94,15.50,8.50,12.50,16.44,4.47,16.67,1.50,5.55,25.88,0.00,43.33,3.87,0.00,0.00,0.00,0.00,13.24,0.00,0.00,0.84,16.85,0.00,0.00,1.32,9.95,0.00,0.00,1.38
0,44.08,4.29,0.00,8.04,15.51,8.50,12.50,16.44,4.47,16.67,1.50,5.55,25.90,0.00,43.33,3.81,0.00,0.00,0.00,0.00,13.48,0.00,0.00,0.86,16.52,0.00,0.00,1.30,9.94,0.00,0.00,1.37
0,45.47,4.29,0.00,8.25,17.40,9.50,13.50,18.50,4.48,16.67,1.50,5.55,26.93,0.00,43.33,4.18,0.00,0.00,0.00,0.00,13.34,0.00,0.00,0.82,17.05,0.00,0.00,1.39,9.95,0.00,0.00,1.33
0,44.37,4.29,0.00,8.10,19.09,10.50,15.00,20.29,5.67,23.33,1.50,6.42,26.26,0.00,41.67,4.10,0.00,0.00,0.00,0.00,12.89,0.00,0.00,0.76,17.23,0.00,0.00,1.40,9.85,0.00,0.00,1.25
0,44.66,4.29,0.00,7.93,19.30,10.50,15.00,20.41,7.87,33.33,2.00,8.80,27.16,0.00,43.33,4.31,0.00,0.00,0.00,0.00,12.73,0.00,0.00,0.75,17.65,0.00,0.00,1.46,9.81,0.00,0.00,1.28
0,45.06,4.29,0.00,7.83,19.29,10.50,15.00,20.41,8.73,36.67,2.50,11.23,26.72,0.00,45.00,4.09,0.00,0.00,0.00,0.00,13.01,0.00,0.00,0.76,17.92,0.00,0.00,1.46,9.66,0.00,0.00,1.27
0,45.10,5.71,0.00,7.94,19.28,10.50,15.00,20.41,8.76,36.67,2.50,11.24,25.97,0.00,43.33,3.80,0.00,0.00,0.00,0.00,13.08,0.00,0.00,0.75,18.46,0.00,0.00,1.48,10.02,0.00,0.00,1.37
0,44.99,5.71,0.00,8.10,19.27,10.50,15.00,20.41,8.76,36.67,2.50,11.24,25.89,0.00,43.33,3.79,0.00,0.00,0.00,0.00,13.08,0.00,0.00,0.73,18.77,0.00,0.00,1.51,9.95,0.00,0.00,1.39
0,43.38,4.29,0.00,7.15,19.28,10.50,15.00,20.41,8.74,36.67,2.50,11.24,26.36,0.00,43.33,3.83,0.00,0.00,0.00,0.00,13.29,0.00,0.00,0.75,19.21,0.00,2.22,1.60,9.76,0.00,0.00,1.31
0,43.74,4.29,0.00,7.17,19.28,10.50,15.00,20.41,8.74,36.67,2.50,11.24,26.29,0.00,43.33,3.79,0.00,0.00,0.00,0.00,13.40,0.00,0.00,0.74,18.96,0.00,2.22,1.57,9.85,0.00,0.00,1.30
0,43.93,4.29,0.00,7.19,19.28,10.50,15.00,20.41,8.75,36.67,2.50,11.24,26.61,0.00,43.33,3.81,0.00,0.00,0.00,0.00,13.47,0.00,0.00,0.74,18.96,0.00,2.22,1.57,9.88,0.00,0.00,1.35
0,44.76,5.71,0.00,7.39,18.80,10.00,14.00,20.23,8.75,36.67,2.50,11.24,26.69,0.00,43.33,3.80,0.00,0.00,0.00,0.00,13.45,0.00,0.00,0.74,18.75,0.00,2.22,1.53,10.13,0.00,0.00,1.42
0,44.29,5.71,0.00,7.35,17.66,9.00,13.00,19.58,8.75,36.67,2.50,11.24,26.98,0.00,43.33,3.96,0.00,0.00,0.00,0.00,13.33,0.00,0.00,0.74,19.26,0.00,2.22,1.60,10.01,0.00,0.00,1.40
0,45.29,5.71,0.00,7.47,15.66,8.00,11.50,17.29,8.75,36.67,2.50,11.24,27.57,0.00,45.00,4.04,0.00,0.00,0.00,0.00,13.32,0.00,0.00,0.75,19.63,0.00,2.22,1.63,10.18,0.00,0.00,1.38
0,45.14,5.71,0.00,7.39,13.53,7.00,9.50,14.68,8.78,36.67,2.50,11.24,27.57,0.00,45.00,4.06,0.00,0.00,0.00,0.00,12.79,0.00,0.00,0.71,19.97,0.00,4.44,1.69,10.00,0.00,0.00,1.35
0,44.67,4.29,0.00,7.33,11.34,6.00,7.50,12.32,8.78,36.67,2.50,11.24,26.80,0.00,43.33,3.90,0.00,0.00,0.00,0.00,12.65,0.00,0.00,0.68,19.98,0.00,4.44,1.68,10.06,0.00,0.00,1.36
0,45.18,4.29,0.00,7.37,8.81,4.50,5.50,10.08,8.78,36.67,2.50,11.24,26.33,0.00,41.67,3.93,0.00,0.00,0.00,0.00,12.70,0.00,0.00,0.67,19.91,0.00,4.44,1.70,10.34,0.00,0.00,1.40
0,44.22,4.29,0.00,7.16,6.62,3.50,4.00,6.58,8.78,36.67,2.50,11.24,26.31,0.00,43.33,3.85,0.00,0.00,0.00,0.00,12.63,0.00,0.00,0.67,20.18,0.00,4.44,1.80,10.41,0.00,0.00,1.41
0,43.22,2.86,0.00,6.93,4.94,2.50,3.50,4.34,7.48,33.33,1.50,10.06,26.30,0.00,43.33,3.85,0.00,0.00,0.00,0.00,12.83,0.00,0.00,0.68,20.58,0.00,4.44,1.82,10.35,0.00,0.00,1.43
0,41.88,2.86,0.00,6.77,5.83,3.50,4.50,4.92,5.73,26.67,1.00,6.35,26.46,0.00,43.33,3.90,0.00,0.00,0.00,0.00,13.13,0.00,0.00,0.68,20.39,0.00,4.44,1.78,10.32,0.00,0.00,1.38
0,42.02,2.86,0.00,6.68,6.40,4.00,5.00,5.17,5.26,23.33,1.00,5.84,25.79,0.00,40.00,3.78,0.00,0.00,0.00,0.00,13.05,0.00,0.00,0.69,19.97,0.00,4.44,1.68,10.37,0.00,0.00,1.40
0,40.92,2.86,0.00,6.22,7.51,5.00,6.00,5.60,4.88,20.00,1.00,5.71,26.45,0.00,41.67,3.93,0.00,0.00,0.00,0.00,13.08,0.00,0.00,0.68,20.09,0.00,4.44,1.78,10.45,0.00,0.00,1.40
0,41.90,2.86,0.00,6.37,9.45,6.50,8.00,7.17,4.84,20.00,1.00,5.70,27.04,0.00,45.00,4.07,0.00,0.00,0.00,0.00,12.88,0.00,0.00,0.67,20.70,0.00,4.44,1.90,10.48,0.00,0.00,1.41
0,41.40,2.86,0.00,6.32,9.98,7.00,9.00,8.62,4.84,20.00,1.00,5.70,26.40,0.00,45.00,3.82,0.00,0.00,0.00,0.00,12.86,0.00,0.00,0.66,20.25,0.00,4.44,1.85,10.54,0.00,0.00,1.46
0,41.57,2.86,0.00,6.44,10.47,7.50,9.00,8.62,3.87,13.33,1.00,4.89,26.12,0.00,43.33,3.70,0.00,0.00,0.00,0.00,12.81,0.00,0.00,0.65,20.44,0.00,4.44,1.85,10.51,0.00,0.00,1.43
0,41.03,2.86,0.00,6.50,10.19,7.00,9.00,8.43,2.70,6.67,1.00,3.65,25.77,0.00,43.33,3.66,0.00,0.00,0.00,0.00,12.94,0.00,0.00,0.67,20.14,0.00,4.44,1.84,10.43,0.00,0.00,1.38
0,40.15,2.86,0.00,6.40,10.19,7.00,9.00,8.43,2.50,6.67,1.00,3.13,25.30,0.00,41.67,3.58,0.00,0.00,0.00,0.00,12.61,0.00,0.00,0.64,20.02,0.00,4.44,1.85,10.59,0.00,0.00,1.37
0,39.29,1.43,0.00,6.09,10.21,7.00,9.00,8.43,3.72,13.33,1.00,4.78,25.63,0.00,43.33,3.59,0.00,0.00,0.00,0.00,12.59,0.00,0.00,0.63,19.64,0.00,4.44,1.87,10.46,0.00,0.00,1.29
0,39.86,1.43,0.00,6.13,10.24,7.00,9.00,8.43,4.51,20.00,1.00,5.40,26.02,0.00,43.33,3.75,0.00,0.00,0.00,0.00,12.92,0.00,0.00,0.65,20.06,0.00,4.44,1.97,10.31,0.00,0.00,1.24
1,39.96,1.43,0.00,6.33,10.22,7.00,9.00,8.43,4.72,20.00,1.00,5.46,26.26,0.00,41.67,3.96,0.00,0.00,0.00,0.00,13.10,0.00,0.00,0.67,19.36,0.00,2.22,1.88,10.61,0.00,0.00,1.33
1,39.13,1.43,0.00,6.06,12.11,8.00,10.00,10.50,4.71,20.00,1.00,5.46,25.86,0.00,41.67,3.90,0.00,0.00,0.00,0.00,13.04,0.00,0.00,0.67,19.74,0.00,4.44,1.96,10.72,0.00,0.00,1.35
1,40.80,4.29,0.00,6.68,14.23,9.50,11.50,12.79,4.72,20.00,1.00,5.46,25.85,0.00,43.33,3.99,0.00,0.00,0.00,0.00,13.67,0.00,0.00,0.72,20.16,0.00,4.44,2.09,10.61,0.00,0.00,1.28
1,42.14,2.86,0.00,7.59,14.53,9.50,11.50,13.05,5.41,23.33,1.00,5.65,25.49,0.00,40.00,3.90,0.00,0.00,0.00,0.00,14.29,0.00,0.00,0.94,20.31,0.00,4.44,2.08,10.40,0.00,0.00,1.24
1,49.22,8.57,10.00,14.01,15.01,9.50,11.50,13.06,7.63,33.33,1.50,8.04,25.46,0.00,40.00,3.77,0.00,0.00,0.00,0.00,15.02,0.00,0.00,1.11,20.87,0.00,6.67,2.46,10.71,0.00,0.00,1.23
1,54.98,12.86,20.00,17.84,17.88,11.00,13.50,16.12,8.48,36.67,2.00,10.48,25.61,0.00,40.00,4.07,0.00,0.00,0.00,0.00,16.01,0.00,0.00,1.25,22.27,0.00,11.11,2.79,10.86,0.00,0.00,1.30
1,57.84,15.71,23.33,20.75,18.76,11.50,14.00,17.84,8.50,36.67,2.00,10.49,26.35,0.00,45.00,4.15,0.00,0.00,0.00,0.00,18.15,0.00,0.00,1.57,22.55,0.00,13.33,2.94,11.13,0.00,0.00,1.32
1,68.79,20.00,33.33,31.14,18.79,11.50,14.00,17.85,8.50,36.67,2.00,10.49,26.92,0.00,43.33,4.34,0.00,0.00,0.00,0.00,20.37,3.33,0.00,2.33,23.72,0.00,17.78,3.44,11.22,0.00,0.00,1.39
1,75.17,24.29,40.00,40.05,18.79,11.50,14.00,17.85,8.50,36.67,2.00,10.49,28.91,0.00,50.00,5.01,0.00,0.00,0.00,0.00,21.68,3.33,0.00,2.72,24.90,0.00,17.78,3.60,12.86,3.33,0.00,2.29
1,82.29,30.00,46.67,45.25,18.78,11.50,14.00,17.85,8.50,36.67,2.00,10.49,29.44,0.00,50.00,5.34,0.00,0.00,0.00,0.00,29.45,13.33,10.00,7.12,28.57,2.22,31.11,5.03,13.29,3.33,0.00,2.59
1,85.53,32.86,46.67,46.42,18.40,11.00,13.00,17.78,8.50,36.67,2.00,10.49,30.67,0.00,50.00,6.01,0.00,0.00,0.00,0.00,36.53,30.00,15.00,10.97,36.41,8.89,40.00,9.95,14.75,6.67,0.00,3.12
1,94.37,38.57,53.33,55.19,17.35,10.50,12.00,17.04,8.49,36.67,2.00,10.49,32.95,5.00,51.67,7.33,0.00,0.00,0.00,0.00,43.59,36.67,20.00,15.87,41.28,15.56,46.67,12.09,14.77,6.67,0.00,3.16
1,96.11,40.00,53.33,56.61,16.55,9.50,11.50,16.66,8.46,36.67,2.00,10.48,35.17,10.00,55.00,8.95,0.00,0.00,0.00,0.00,50.64,43.33,30.00,22.28,41.39,15.56,48.89,12.53,16.76,10.00,0.00,4.29
1,95.13,40.00,53.33,56.56,15.71,8.50,10.50,16.25,8.48,36.67,2.00,10.49,40.09,15.00,61.67,12.12,0.00,0.00,0.00,0.00,56.15,53.33,35.00,25.19,40.61,15.56,48.89,12.42,17.80,10.00,0.00,4.56
1,98.69,42.86,56.67,59.83,14.18,7.50,9.00,14.93,8.48,36.67,2.00,10.49,40.60,15.00,60.00,12.72,0.00,0.00,0.00,0.00,62.32,60.00,45.00,28.69,39.61,15.56,48.89,12.31,19.82,13.33,0.00,5.19
1,103.61,45.71,60.00,65.98,12.64,6.50,7.00,14.01,8.48,36.67,2.00,10.49,42.11,15.00,63.33,13.27,0.00,0.00,0.00,0.00,66.38,66.67,50.00,30.24,39.16,15.56,48.89,12.20,21.54,16.67,0.00,6.39
1,105.49,48.57,63.33,69.30,9.85,5.00,5.00,11.13,8.48,36.67,2.00,10.49,44.04,15.00,65.00,13.80,0.00,0.00,0.00,0.00,70.73,80.00,50.00,31.98,41.88,17.78,51.11,12.99,23.23,16.67,0.00,7.09
1,115.76,54.29,76.67,76.97,9.19,4.50,5.00,9.46,8.46,36.67,2.00,10.48,47.15,20.00,68.33,15.50,0.00,0.00,0.00,0.00,74.84,86.67,50.00,33.71,43.60,20.00,55.56,14.10,24.92,16.67,0.00,7.76
1,123.46,58.57,86.67,82.98,10.93,5.50,6.00,11.18,7.16,33.33,1.00,9.31,48.30,20.00,68.33,15.84,0.00,0.00,0.00,0.00,80.96,100.00,60.00,38.38,46.27,24.44,60.00,15.41,25.54,16.67,0.00,7.87
1,127.90,64.29,90.00,86.51,12.97,6.50,7.50,13.64,5.57,26.67,1.00,5.99,49.16,20.00,70.00,16.18,0.00,0.00,0.00,0.00,83.90,106.67,60.00,39.77,48.18,24.44,66.67,16.01,26.95,20.00,0.00,8.56
1,131.14,67.14,90.00,87.71,13.18,6.50,7.50,13.82,4.54,16.67,1.00,5.15,50.33,20.00,75.00,16.39,0.00,0.00,0.00,0.00,87.35,110.00,60.00,41.12,50.08,24.44,71.11,16.94,27.37,20.00,0.00,8.64
1,138.79,70.00,96.67,94.06,13.20,6.50,7.50,13.82,4.29,16.67,1.00,5.04,49.99,20.00,75.00,16.24,0.00,0.00,0.00,0.00,91.04,113.33,65.00,44.42,53.41,28.89,75.56,18.27,27.07,20.00,0.00,8.59
1,146.44,74.29,100.00,97.57,11.91,6.00,6.50,13.02,4.27,16.67,1.00,5.04,50.65,20.00,73.33,16.60,0.00,0.00,0.00,0.00,94.45,116.67,65.00,45.86,55.12,31.11,80.00,19.06,27.82,20.00,0.00,8.74
1,153.21,78.57,110.00,105.25,9.83,4.50,5.00,10.85,4.25,16.67,1.00,5.04,52.00,20.00,76.67,17.23,0.00,0.00,0.00,0.00,96.28,120.00,65.00,46.77,56.98,31.11,82.22,19.93,28.51,20.00,0.00,9.14
1,157.53,81.43,120.00,108.95,8.95,4.00,5.00,9.20,3.79,13.33,1.00,4.86,54.81,25.00,81.67,18.24,0.00,0.00,0.00,0.00,98.93,126.67,65.00,48.29,61.64,37.78,91.11,22.28,30.17,23.33,0.00,9.66
1,155.60,82.86,120.00,105.35,8.86,4.00,5.00,9.19,3.27,13.33,1.00,4.18,56.56,25.00,86.67,19.29,0.00,0.00,0.00,0.00,102.09,133.33,70.00,50.44,65.14,42.22,95.56,24.80,30.40,23.33,0.00,9.95
1,158.19,84.29,120.00,107.13,6.83,3.00,3.50,6.89,1.47,10.00,0.00,0.72,56.63,25.00,88.33,18.98,0.00,0.00,0.00,0.00,107.80,150.00,80.00,53.15,66.76,42.22,97.78,25.41,31.12,23.33,0.00,10.34
1,160.48,88.57,133.33,107.26,4.73,2.00,2.50,4.41,1.41,10.00,0.00,0.71,57.58,25.00,90.00,19.40,0.00,0.00,0.00,0.00,112.86,163.33,85.00,56.14,70.27,46.67,102.22,27.80,31.59,23.33,0.00,10.49
1,162.35,95.71,146.67,104.80,4.67,2.00,2.50,4.40,1.41,10.00,0.00,0.71,58.51,25.00,96.67,19.47,0.00,0.00,0.00,0.00,115.86,173.33,85.00,57.83,73.44,51.11,104.44,29.28,33.22,26.67,0.00,11.85
1,161.95,98.57,150.00,99.76,4.67,2.00,2.50,4.40,1.49,10.00,0.00,0.72,57.37,25.00,91.67,19.31,0.00,0.00,0.00,0.00,115.61,173.33,85.00,57.64,75.63,53.33,111.11,30.33,33.46,26.67,0.00,12.01
1,163.65,98.57,160.00,96.80,5.85,2.50,3.50,5.49,3.21,16.67,1.00,3.30,57.79,25.00,95.00,19.11,0.00,0.00,0.00,0.00,114.29,173.33,75.00,57.05,73.95,51.11,104.44,30.21,34.87,26.67,0.00,12.24
1,169.28,102.86,170.00,101.34,6.39,3.00,3.50,5.85,5.33,23.33,2.00,7.14,57.76,25.00,101.67,18.75,0.00,0.00,0.00,0.00,109.58,166.67,70.00,51.85,68.96,51.11,100.00,27.18,33.43,23.33,0.00,11.71
1,168.00,102.86,176.67,100.01,6.40,3.00,3.50,5.85,5.46,23.33,2.00,7.19,57.47,20.00,103.33,18.15,0.00,0.00,0.00,0.00,105.44,156.67,70.00,49.81,67.39,44.44,100.00,25.32,33.21,23.33,0.00,11.61
1,169.07,102.86,180.00,99.95,6.40,3.00,3.50,5.85,5.47,23.33,2.00,7.19,60.52,25.00,111.67,19.24,0.00,0.00,0.00,0.00,101.60,160.00,60.00,46.01,66.22,42.22,97.78,24.44,33.30,23.33,0.00,11.77
1,176.40,108.57,186.67,104.68,6.40,3.00,3.50,5.85,5.47,23.33,2.00,7.19,58.09,20.00,108.33,17.93,0.00,0.00,0.00,0.00,94.57,146.67,50.00,39.73,68.57,42.22,100.00,25.21,34.77,30.00,8.33,12.67
1,181.44,112.86,193.33,106.80,6.40,3.00,3.50,5.85,5.44,23.33,2.00,7.18,55.98,15.00,111.67,15.42,0.00,0.00,0.00,0.00,90.26,143.33,40.00,37.01,71.73,42.22,104.44,25.92,34.00,30.00,8.33,12.27
1,181.43,111.43,196.67,106.13,6.40,3.00,3.50,5.85,5.44,23.33,2.00,7.18,55.14,15.00,110.00,15.36,0.00,0.00,0.00,0.00,88.35,140.00,35.00,35.90,74.11,42.22,108.89,26.37,31.72,23.33,8.33,11.14
1,186.44,114.29,200.00,109.30,6.39,3.00,3.50,5.85,5.44,23.33,2.00,7.18,55.19,15.00,111.67,15.40,0.00,0.00,0.00,0.00,87.95,136.67,35.00,34.99,73.82,42.22,108.89,26.53,30.38,23.33,8.33,10.58
1,184.16,111.43,193.33,109.46,6.33,3.00,3.50,5.85,5.44,23.33,2.00,7.18,52.28,10.00,108.33,13.90,0.00,0.00,0.00,0.00,85.78,133.33,40.00,34.44,72.71,37.78,108.89,25.25,28.99,23.33,8.33,10.10
1,183.32,110.00,186.67,111.10,4.94,2.50,2.50,5.15,5.44,23.33,2.00,7.18,52.52,10.00,110.00,14.20,0.00,0.00,0.00,0.00,81.62,123.33,30.00,30.13,71.61,33.33,108.89,24.48,28.81,23.33,8.33,10.03
1,186.39,112.86,190.00,113.15,2.84,1.50,1.00,2.08,5.44,23.33,2.00,7.18,50.85,10.00,108.33,13.66,0.00,0.00,0.00,0.00,82.73,126.67,30.00,29.76,71.70,33.33,106.67,24.72,27.36,20.00,8.33,9.56
1,189.90,114.29,200.00,116.60,2.94,2.00,2.00,1.83,5.44,23.33,2.00,7.18,50.37,10.00,105.00,13.60,0.00,0.00,0.00,0.00,81.32,126.67,30.00,28.80,70.71,33.33,102.22,24.40,27.05,20.00,8.33,9.33
1,192.82,115.71,203.33,117.90,4.90,3.00,3.50,4.07,5.44,23.33,2.00,7.18,51.05,10.00,106.67,13.78,0.00,0.00,0.00,0.00,81.49,133.33,30.00,27.63,70.51,31.11,104.44,24.88,27.16,20.00,8.33,9.34
1,193.03,117.14,206.67,117.74,7.01,4.00,5.00,6.68,5.45,23.33,2.00,7.18,50.55,10.00,106.67,13.61,0.00,0.00,0.00,0.00,81.20,133.33,35.00,27.27,69.11,26.67,97.78,24.09,27.10,20.00,8.33,9.31
1,189.51,118.57,210.00,113.18,7.14,4.00,5.00,6.72,5.44,23.33,2.00,7.18,50.55,10.00,105.00,13.51,0.00,0.00,0.00,0.00,83.77,136.67,40.00,29.63,70.67,31.11,102.22,24.33,26.37,20.00,8.33,9.21
1,187.15,117.14,200.00,112.43,7.14,4.00,5.00,6.72,5.45,23.33,2.00,7.18,49.73,5.00,105.00,13.34,0.00,0.00,0.00,0.00,86.91,143.33,50.00,30.17,69.82,26.67,97.78,24.33,25.50,20.00,8.33,9.02
1,189.07,117.14,196.67,116.80,7.15,4.00,5.00,6.72,5.27,20.00,2.00,7.18,48.28,5.00,101.67,12.57,0.00,0.00,0.00,0.00,86.92,143.33,45.00,29.21,65.85,22.22,100.00,20.94,24.80,16.67,8.33,8.40
1,190.12,117.14,200.00,116.44,7.15,4.00,5.00,6.72,4.50,13.33,2.00,6.49,47.75,5.00,101.67,12.49,0.00,0.00,0.00,0.00,85.47,143.33,35.00,28.82,64.41,20.00,102.22,20.03,23.89,16.67,8.33,8.05
1,188.40,111.43,186.67,120.71,7.14,4.00,5.00,6.72,5.67,20.00,2.50,8.16,47.05,5.00,98.33,12.33,0.00,0.00,0.00,0.00,81.48,133.33,30.00,25.72,64.10,20.00,97.78,19.93,23.51,16.67,8.33,7.85
1,183.02,105.71,166.67,120.27,7.16,4.00,5.00,6.72,7.98,30.00,3.50,12.01,47.03,5.00,96.67,12.44,0.00,0.00,0.00,0.00,83.34,126.67,40.00,27.93,65.56,20.00,102.22,20.18,22.09,13.33,8.33,6.64
1,181.81,102.86,163.33,121.35,7.16,4.00,5.00,6.72,8.26,30.00,3.50,12.39,46.11,5.00,95.00,12.22,0.00,0.00,0.00,0.00,82.21,126.67,40.00,27.62,62.88,15.56,95.56,19.23,21.11,13.33,8.33,6.31
1,176.50,100.00,150.00,119.20,6.84,4.00,4.50,6.72,6.92,26.67,2.50,10.29,45.48,5.00,96.67,11.74,0.00,0.00,0.00,0.00,84.10,133.33,40.00,29.12,65.29,20.00,95.56,20.96,18.96,10.00,8.33,5.35
1,172.44,98.57,140.00,118.13,5.49,3.00,4.00,5.28,4.57,16.67,1.50,6.28,44.98,5.00,91.67,11.70,0.00,0.00,0.00,0.00,87.01,136.67,45.00,30.99,67.31,20.00,100.00,21.54,19.05,10.00,8.33,5.21
1,167.84,97.14,130.00,112.06,5.46,3.00,4.00,5.27,4.28,16.67,1.50,5.92,43.51,5.00,86.67,11.20,0.00,0.00,0.00,0.00,92.06,143.33,55.00,33.98,66.01,17.78,97.78,20.48,19.08,10.00,8.33,5.21
1,173.29,100.00,136.67,117.29,5.94,3.50,5.00,5.41,5.01,20.00,1.50,6.39,42.91,5.00,81.67,11.35,0.00,0.00,0.00,0.00,93.52,143.33,65.00,35.11,67.58,20.00,100.00,22.54,18.03,6.67,8.33,4.86
1,173.58,101.43,143.33,117.13,7.18,4.50,6.00,6.31,7.39,26.67,2.50,9.94,40.61,0.00,76.67,9.93,0.00,0.00,0.00,0.00,95.91,143.33,70.00,36.61,66.55,20.00,100.00,22.12,15.16,0.00,0.00,2.96
1,175.20,101.43,140.00,117.95,7.34,4.50,6.00,6.38,9.17,33.33,3.50,13.68,39.12,0.00,71.67,9.64,0.00,0.00,0.00,0.00,96.93,146.67,70.00,36.67,65.98,20.00,100.00,21.69,14.69,0.00,0.00,2.89
1,174.55,101.43,140.00,119.12,7.34,4.50,6.00,6.38,9.20,33.33,3.50,13.69,38.90,0.00,73.33,9.15,0.00,0.00,0.00,0.00,100.92,153.33,80.00,39.47,65.59,20.00,102.22,21.64,14.12,0.00,0.00,2.69
1,172.84,102.86,133.33,116.11,7.34,4.50,6.00,6.38,9.21,33.33,3.50,13.69,38.25,0.00,70.00,8.64,0.00,0.00,0.00,0.00,102.15,153.33,80.00,40.43,67.34,24.44,108.89,22.06,13.90,0.00,0.00,2.57
1,174.72,107.14,136.67,114.60,7.34,4.50,6.00,6.38,9.21,33.33,3.50,13.69,38.54,0.00,70.00,8.79,0.00,0.00,0.00,0.00,102.16,150.00,75.00,40.34,67.52,24.44,111.11,22.10,13.42,0.00,0.00,2.42
1,177.22,111.43,146.67,112.30,7.34,4.50,6.00,6.38,9.20,33.33,3.50,13.69,38.83,0.00,73.33,8.64,0.00,0.00,0.00,0.00,105.55,156.67,80.00,42.60,67.35,24.44,111.11,22.26,12.71,0.00,0.00,2.21
1,178.33,111.43,153.33,112.61,7.34,4.50,6.00,6.38,9.20,33.33,3.50,13.69,38.95,0.00,73.33,8.50,0.00,0.00,0.00,0.00,106.60,156.67,80.00,44.19,68.20,24.44,115.56,22.44,12.64,0.00,0.00,2.20
1,175.95,110.00,146.67,111.56,6.78,4.00,5.00,6.23,9.21,33.33,3.50,13.69,38.56,0.00,75.00,8.22,0.00,0.00,0.00,0.00,107.53,150.00,80.00,45.60,69.25,24.44,120.00,23.21,13.11,0.00,0.00,2.35
1,177.58,112.86,153.33,110.63,5.02,3.00,3.50,4.18,9.20,33.33,3.50,13.69,38.39,0.00,73.33,8.17,0.00,0.00,0.00,0.00,106.62,146.67,75.00,44.83,67.93,24.44,117.78,22.17,13.16,0.00,0.00,2.38
1,177.19,114.29,153.33,110.11,2.60,1.50,2.00,1.36,9.20,33.33,3.50,13.69,37.77,0.00,71.67,8.03,0.00,0.00,0.00,0.00,104.15,140.00,70.00,44.31,69.47,26.67,120.00,22.85,13.16,0.00,0.00,2.43
1,179.82,114.29,153.33,113.51,2.31,1.50,2.00,1.11,9.20,33.33,3.50,13.69,37.30,0.00,70.00,7.59,0.00,0.00,0.00,0.00,102.91,140.00,70.00,42.03,68.84,24.44,120.00,22.07,12.59,0.00,0.00,2.25
1,182.85,112.86,156.67,117.30,3.17,2.50,3.00,1.54,9.20,33.33,3.50,13.69,36.30,0.00,66.67,7.24,0.00,0.00,0.00,0.00,105.12,143.33,70.00,44.49,69.91,24.44,124.44,22.38,12.32,0.00,0.00,2.15
1,181.97,112.86,163.33,112.49,5.53,3.50,5.00,3.91,9.21,33.33,3.50,13.69,36.19,0.00,66.67,7.25,0.00,0.00,0.00,0.00,105.78,143.33,80.00,45.26,68.72,24.44,117.78,22.25,12.28,0.00,0.00,2.06
1,182.92,112.86,163.33,114.51,7.30,4.50,6.00,6.39,9.21,33.33,3.50,13.69,35.99,0.00,63.33,6.99,0.00,0.00,0.00,0.00,104.90,136.67,80.00,44.94,68.93,24.44,113.33,22.53,12.37,0.00,0.00,2.09
1,185.93,114.29,166.67,115.39,7.34,4.50,6.00,6.40,8.88,30.00,3.00,13.69,36.59,0.00,70.00,6.99,0.00,0.00,0.00,0.00,104.95,136.67,80.00,45.13,67.71,22.22,108.89,22.51,12.63,0.00,0.00,2.23
1,186.80,115.71,170.00,116.48,7.33,4.50,6.00,6.40,6.32,20.00,2.00,10.34,35.21,0.00,68.33,6.33,0.00,0.00,0.00,0.00,102.68,133.33,75.00,43.29,62.02,17.78,104.44,18.79,12.63,0.00,0.00,2.14
1,182.60,112.86,160.00,113.06,7.32,4.50,6.00,6.40,5.41,16.67,2.00,7.79,35.57,0.00,70.00,6.61,0.00,0.00,0.00,0.00,101.05,133.33,70.00,41.56,62.91,17.78,108.89,18.90,13.19,0.00,0.00,2.29
1,187.62,114.29,163.33,116.74,7.32,4.50,6.00,6.40,5.36,16.67,2.00,7.78,36.35,0.00,68.33,6.91,0.00,0.00,0.00,0.00,100.18,126.67,70.00,40.28,59.86,13.33,108.89,17.25,12.74,0.00,0.00,2.12
1,191.06,115.71,176.67,117.91,7.31,4.50,6.00,6.40,5.37,16.67,2.00,7.78,35.02,0.00,65.00,6.68,0.00,0.00,0.00,0.00,97.00,123.33,65.00,38.36,56.81,11.11,102.22,15.62,13.04,0.00,0.00,2.06
1,195.59,115.71,183.33,122.11,7.32,4.50,6.00,6.40,5.37,16.67,2.00,7.78,35.77,0.00,65.00,7.17,0.00,0.00,0.00,0.00,93.26,116.67,55.00,35.29,55.65,11.11,97.78,15.15,13.34,0.00,0.00,2.15
1,194.64,115.71,186.67,120.44,7.00,4.00,5.00,6.34,6.80,20.00,3.00,10.81,35.38,0.00,66.67,6.75,0.00,0.00,0.00,0.00,91.55,110.00,50.00,35.40,55.09,8.89,97.78,14.40,13.34,0.00,0.00,2.12
1,194.65,114.29,183.33,122.02,5.89,3.50,4.00,5.53,5.56,20.00,2.00,8.09,35.19,0.00,70.00,6.63,0.00,0.00,0.00,0.00,92.01,116.67,55.00,35.56,55.72,8.89,97.78,14.58,13.82,0.00,0.00,2.17
1,192.88,112.86,180.00,122.04,5.47,3.00,4.00,5.29,3.46,13.33,1.00,4.16,34.60,0.00,68.33,6.40,0.00,0.00,0.00,0.00,89.82,110.00,50.00,34.35,55.42,8.89,97.78,14.57,14.04,0.00,0.00,2.32
1,188.72,112.86,180.00,115.14,5.46,3.00,4.00,5.29,3.32,13.33,1.00,4.10,35.28,0.00,70.00,6.88,0.00,0.00,0.00,0.00,87.19,106.67,45.00,33.51,55.64,8.89,93.33,15.08,14.25,0.00,0.00,2.35
1,192.47,115.71,190.00,118.32,5.47,3.00,4.00,5.29,3.44,13.33,1.00,4.12,36.09,0.00,75.00,7.04,0.00,0.00,0.00,0.00,84.94,103.33,45.00,30.63,55.83,4.44,95.56,14.83,14.40,0.00,0.00,2.43
1,192.34,115.71,200.00,117.20,7.68,4.00,5.50,7.39,4.71,16.67,1.50,5.91,36.99,5.00,76.67,7.52,0.00,0.00,0.00,0.00,86.55,110.00,45.00,32.28,58.45,8.89,100.00,16.27,14.74,0.00,0.00,2.53
1,184.66,108.57,180.00,114.13,9.63,5.50,7.00,9.36,7.02,26.67,2.50,9.80,35.96,5.00,71.67,7.26,0.00,0.00,0.00,0.00,82.50,103.33,40.00,29.65,56.82,8.89,91.11,15.80,15.01,0.00,0.00,2.57
1,180.36,107.14,176.67,109.86,10.04,6.00,7.50,9.74,7.31,26.67,2.50,10.16,35.74,5.00,68.33,7.18,0.00,0.00,0.00,0.00,84.94,110.00,45.00,30.24,56.10,8.89,88.89,15.49,15.21,0.00,0.00,2.67
1,180.62,105.71,176.67,109.47,10.05,6.00,7.50,9.74,7.32,26.67,2.50,10.16,36.86,5.00,70.00,7.77,0.00,0.00,0.00,0.00,81.07,103.33,45.00,27.71,53.50,8.89,84.44,14.30,15.26,0.00,0.00,2.74
1,173.73,100.00,166.67,106.44,10.06,6.00,7.50,9.74,7.32,26.67,2.50,10.16,38.13,5.00,75.00,8.13,0.00,0.00,0.00,0.00,80.92,106.67,45.00,27.77,54.40,8.89,91.11,14.16,15.36,0.00,0.00,2.77
1,174.99,100.00,160.00,110.83,10.06,6.00,7.50,9.74,7.33,26.67,2.50,10.16,39.61,5.00,80.00,8.39,0.00,0.00,0.00,0.00,79.42,103.33,45.00,26.75,51.56,6.67,86.67,12.82,15.17,0.00,0.00,2.62
1,168.26,95.71,153.33,104.02,10.06,6.00,7.50,9.74,7.34,26.67,2.50,10.16,39.91,5.00,85.00,8.45,0.00,0.00,0.00,0.00,80.85,106.67,40.00,28.27,52.58,8.89,88.89,13.64,15.22,0.00,0.00,2.59
1,162.87,92.86,146.67,100.35,9.24,5.00,6.50,9.34,7.34,26.67,2.50,10.16,39.74,5.00,90.00,8.27,0.00,0.00,0.00,0.00,76.27,100.00,30.00,25.25,52.19,8.89,86.67,13.47,16.20,0.00,0.00,2.80
1,161.35,94.29,143.33,97.73,7.27,4.00,5.00,7.10,7.33,26.67,2.50,10.16,42.36,5.00,95.00,9.60,0.00,0.00,0.00,0.00,74.83,100.00,20.00,24.59,53.07,8.89,88.89,13.96,16.68,0.00,0.00,2.90
1,157.81,95.71,143.33,92.80,5.15,3.00,3.50,4.49,7.34,26.67,2.50,10.16,44.44,10.00,98.33,10.81,0.00,0.00,0.00,0.00,73.94,100.00,20.00,23.06,53.50,8.89,93.33,13.95,16.95,0.00,0.00,2.97
1,157.04,94.29,146.67,91.82,5.02,3.00,3.50,4.45,7.33,26.67,2.50,10.16,43.64,10.00,91.67,10.76,0.00,0.00,0.00,0.00,72.71,93.33,20.00,23.18,53.55,8.89,93.33,13.94,16.74,0.00,0.00,2.91
1,154.35,92.86,143.33,90.12,5.38,3.50,4.00,4.51,7.33,26.67,2.50,10.16,43.88,10.00,90.00,10.91,0.00,0.00,0.00,0.00,73.33,96.67,20.00,24.18,54.36,8.89,97.78,14.17,16.71,0.00,0.00,2.90
1,158.06,97.14,153.33,94.40,7.03,4.00,5.00,6.39,7.33,26.67,2.50,10.16,46.66,15.00,90.00,12.26,0.00,0.00,0.00,0.00,73.17,96.67,20.00,23.84,52.86,8.89,91.11,13.76,16.55,0.00,0.00,2.85
1,155.42,95.71,150.00,92.23,8.09,5.00,5.50,7.20,7.35,26.67,2.50,10.16,45.09,15.00,88.33,11.71,0.00,0.00,0.00,0.00,72.67,96.67,20.00,23.55,51.82,8.89,86.67,13.26,17.05,0.00,0.00,2.97
1,148.28,90.00,140.00,87.65,8.18,5.00,5.50,7.22,7.35,26.67,2.50,10.16,45.70,15.00,91.67,11.86,0.00,0.00,0.00,0.00,74.34,100.00,25.00,24.69,52.40,8.89,91.11,13.51,16.97,0.00,0.00,2.93
1,149.01,91.43,133.33,88.15,8.18,5.00,5.50,7.22,7.35,26.67,2.50,10.16,45.75,15.00,91.67,11.73,0.00,0.00,0.00,0.00,73.13,93.33,25.00,24.48,53.89,8.89,93.33,14.26,16.79,0.00,0.00,2.91
1,149.48,90.00,136.67,87.50,8.18,5.00,5.50,7.22,5.42,20.00,1.50,6.94,45.51,15.00,93.33,11.44,0.00,0.00,0.00,0.00,72.59,96.67,20.00,23.62,51.86,8.89,88.89,13.46,16.48,0.00,0.00,2.86
1,151.01,90.00,140.00,89.66,8.19,5.00,5.50,7.22,4.54,13.33,1.50,6.07,45.32,15.00,88.33,11.42,0.00,0.00,0.00,0.00,70.98,90.00,15.00,23.06,52.13,8.89,88.89,13.60,16.62,0.00,0.00,2.95
1,153.21,91.43,140.00,91.46,8.19,5.00,5.50,7.22,4.48,13.33,1.50,6.06,45.98,15.00,93.33,11.65,0.00,0.00,0.00,0.00,73.59,100.00,15.00,24.25,52.16,8.89,88.89,13.34,16.47,0.00,0.00,2.75
1,151.27,87.14,140.00,90.58,8.19,5.00,5.50,7.22,4.48,13.33,1.50,6.06,45.00,15.00,88.33,11.16,0.00,0.00,0.00,0.00,72.55,93.33,10.00,23.67,50.70,8.89,84.44,12.89,16.39,0.00,0.00,2.72
1,149.54,85.71,136.67,89.09,8.20,5.00,5.50,7.22,5.97,16.67,2.50,8.68,45.22,15.00,88.33,11.25,0.00,0.00,0.00,0.00,73.52,96.67,10.00,24.54,48.51,8.89,75.56,12.47,16.18,0.00,0.00,2.67
1,149.38,84.29,133.33,87.73,6.36,4.00,4.50,5.27,6.89,26.67,2.00,10.35,43.65,10.00,85.00,10.62,0.00,0.00,0.00,0.00,71.61,90.00,10.00,22.91,44.86,4.44,68.89,10.78,15.70,0.00,0.00,2.52
1,151.47,84.29,136.67,90.90,4.54,3.00,3.00,3.31,4.45,16.67,1.00,6.95,43.68,10.00,85.00,10.64,0.00,0.00,0.00,0.00,69.46,86.67,10.00,22.12,44.03,4.44,66.67,10.54,15.93,0.00,0.00,2.54
1,151.17,85.71,140.00,91.32,3.64,2.00,2.00,2.77,3.60,13.33,1.00,4.44,43.78,10.00,86.67,10.59,0.00,0.00,0.00,0.00,67.45,80.00,5.00,21.39,42.52,4.44,64.44,10.12,15.74,0.00,0.00,2.53
1,150.31,84.29,136.67,91.41,3.62,2.00,2.00,2.77,3.57,13.33,1.00,4.43,42.03,10.00,81.67,9.87,0.00,0.00,0.00,0.00,68.42,80.00,5.00,21.09,43.95,4.44,64.44,10.68,15.05,0.00,0.00,2.23
1,150.57,85.71,136.67,92.45,3.61,2.00,2.00,2.77,3.99,16.67,1.00,4.59,39.92,10.00,76.67,9.46,0.00,0.00,0.00,0.00,68.88,80.00,5.00,21.51,43.47,4.44,60.00,10.53,15.22,0.00,0.00,2.33
1,150.18,85.71,140.00,90.31,4.70,3.00,3.00,3.48,5.84,23.33,2.00,7.45,39.48,10.00,75.00,9.38,0.00,0.00,0.00,0.00,68.10,76.67,5.00,21.33,43.45,4.44,60.00,10.47,15.52,0.00,0.00,2.50
1,157.43,91.43,153.33,94.83,4.88,3.00,3.00,3.56,7.93,30.00,3.00,11.18,39.28,10.00,73.33,9.30,0.00,0.00,0.00,0.00,66.86,70.00,5.00,19.70,43.08,2.22,60.00,9.90,15.56,0.00,0.00,2.52
1,159.47,94.29,156.67,95.68,4.89,3.00,3.00,3.56,7.99,30.00,3.00,11.19,39.00,10.00,71.67,9.38,0.00,0.00,0.00,0.00,65.05,63.33,5.00,18.86,42.67,2.22,55.56,9.53,14.84,0.00,0.00,2.42
1,167.65,98.57,166.67,103.69,4.89,3.00,3.00,3.56,7.99,30.00,3.00,11.19,37.23,10.00,66.67,8.62,0.00,0.00,0.00,0.00,65.82,63.33,10.00,19.73,41.91,2.22,53.33,9.18,15.40,0.00,0.00,2.74
1,169.96,100.00,170.00,105.42,4.91,3.00,3.00,3.57,8.00,30.00,3.00,11.19,34.50,5.00,63.33,7.07,0.00,0.00,0.00,0.00,64.47,60.00,10.00,19.30,40.67,2.22,44.44,9.08,14.89,0.00,0.00,2.63
1,170.18,100.00,170.00,106.55,4.89,3.00,3.00,3.57,8.02,30.00,3.00,11.20,34.84,5.00,63.33,7.29,0.00,0.00,0.00,0.00,63.50,56.67,10.00,18.60,40.84,2.22,46.67,9.00,14.63,0.00,0.00,2.56
1,169.05,98.57,173.33,103.86,4.88,3.00,3.00,3.56,8.02,30.00,3.00,11.20,35.59,5.00,65.00,7.53,0.00,0.00,0.00,0.00,62.20,53.33,10.00,17.50,41.43,4.44,42.22,9.24,15.01,0.00,0.00,2.65
1,163.20,95.71,160.00,97.66,3.93,2.50,2.00,3.39,8.02,30.00,3.00,11.20,34.25,5.00,63.33,6.76,0.00,0.00,0.00,0.00,60.79,46.67,10.00,17.32,41.46,4.44,44.44,9.51,14.60,0.00,0.00,2.73
1,164.58,98.57,170.00,97.37,1.99,1.00,1.00,0.99,8.00,30.00,3.00,11.20,33.15,0.00,65.00,6.01,0.00,0.00,0.00,0.00,58.70,43.33,10.00,16.96,41.54,4.44,44.44,9.63,13.99,0.00,0.00,2.56
1,168.26,101.43,173.33,99.46,1.72,1.00,1.00,0.80,7.99,30.00,3.00,11.20,33.38,0.00,63.33,6.24,0.00,0.00,0.00,0.00,56.62,36.67,5.00,15.67,40.90,4.44,42.22,9.39,13.80,0.00,0.00,2.61
1,165.34,102.86,170.00,96.56,1.71,1.00,1.00,0.80,8.00,30.00,3.00,11.20,33.99,0.00,66.67,6.34,0.00,0.00,0.00,0.00,56.40,36.67,5.00,15.38,39.96,4.44,40.00,8.77,13.61,0.00,0.00,2.62
1,167.54,105.71,170.00,98.71,1.72,1.00,1.00,0.80,7.99,30.00,3.00,11.19,34.06,0.00,66.67,6.44,0.00,0.00,0.00,0.00,55.47,36.67,5.00,14.79,40.21,4.44,40.00,8.76,13.42,0.00,0.00,2.52
1,169.53,107.14,170.00,101.64,2.82,2.50,2.00,1.48,7.99,30.00,3.00,11.19,35.44,0.00,71.67,7.04,0.00,0.00,0.00,0.00,55.14,40.00,5.00,14.68,39.67,4.44,40.00,8.61,13.33,0.00,0.00,2.53
1,163.24,104.29,163.33,97.84,4.90,3.50,3.50,3.88,7.99,30.00,3.00,11.19,35.69,0.00,71.67,7.08,0.00,0.00,0.00,0.00,55.08,36.67,5.00,14.61,39.47,4.44,40.00,8.58,13.33,0.00,0.00,2.61
1,162.57,104.29,163.33,95.91,4.97,3.50,3.50,3.89,7.98,30.00,3.00,11.19,35.72,0.00,71.67,7.06,0.00,0.00,0.00,0.00,53.97,33.33,5.00,14.40,40.60,6.67,44.44,9.03,13.44,0.00,0.00,2.73
1,165.08,105.71,166.67,98.77,4.96,3.50,3.50,3.89,7.57,30.00,2.50,11.19,35.08,0.00,70.00,6.80,0.00,0.00,0.00,0.00,54.91,36.67,5.00,14.43,42.19,6.67,44.44,9.70,13.82,0.00,0.00,2.91
1,168.55,111.43,170.00,100.69,4.95,3.50,3.50,3.89,5.37,20.00,2.00,7.49,35.10,0.00,70.00,6.79,0.00,0.00,0.00,0.00,53.39,33.33,5.00,13.76,42.12,6.67,42.22,9.52,14.29,0.00,0.00,2.97
1,168.93,110.00,173.33,100.90,4.94,3.50,3.50,3.89,4.92,16.67,2.00,6.78,36.09,0.00,70.00,7.43,0.00,0.00,0.00,0.00,55.31,36.67,5.00,14.11,43.40,6.67,44.44,9.86,14.24,0.00,0.00,2.96
1,167.66,108.57,173.33,98.51,4.95,3.50,3.50,3.89,4.90,16.67,2.00,6.77,36.16,0.00,73.33,7.46,0.00,0.00,0.00,0.00,58.58,40.00,10.00,16.44,46.21,6.67,46.67,11.04,14.24,0.00,0.00,2.90
1,171.15,110.00,176.67,103.68,4.95,3.50,3.50,3.89,4.89,16.67,2.00,6.77,36.72,0.00,75.00,7.63,0.00,0.00,0.00,0.00,59.27,46.67,10.00,16.72,47.03,6.67,51.11,11.38,14.46,0.00,0.00,2.94
1,173.35,112.86,183.33,102.50,4.96,3.50,3.50,3.89,6.61,20.00,3.00,10.08,38.16,0.00,78.33,8.08,0.00,0.00,0.00,0.00,60.99,46.67,10.00,17.23,46.58,6.67,51.11,11.15,14.30,0.00,0.00,3.01
1,174.17,114.29,186.67,101.96,4.21,3.00,2.50,3.62,6.80,20.00,3.00,11.02,38.21,0.00,78.33,8.07,0.00,0.00,0.00,0.00,61.33,50.00,15.00,18.15,46.75,6.67,51.11,11.47,13.78,0.00,0.00,2.74
1,172.37,111.43,183.33,100.68,3.72,2.50,2.50,3.10,5.24,16.67,2.00,7.60,38.79,0.00,80.00,8.30,0.00,0.00,0.00,0.00,61.61,50.00,15.00,18.17,45.64,6.67,51.11,11.24,13.97,0.00,0.00,2.79
1,168.88,107.14,173.33,97.18,3.71,2.50,2.50,3.10,5.01,16.67,2.00,7.33,38.78,0.00,78.33,8.38,0.00,0.00,0.00,0.00,62.55,50.00,15.00,18.42,47.06,6.67,55.56,11.65,14.24,0.00,0.00,2.81
1,166.33,107.14,173.33,94.33,3.71,2.50,2.50,3.10,5.00,16.67,2.00,7.33,37.48,0.00,75.00,7.98,0.00,0.00,0.00,0.00,60.82,43.33,10.00,18.00,45.09,4.44,51.11,11.34,13.68,0.00,0.00,2.49
1,162.46,104.29,160.00,92.49,3.69,2.50,2.50,3.10,5.31,20.00,2.00,7.40,37.99,0.00,78.33,7.97,0.00,0.00,0.00,0.00,60.39,43.33,10.00,16.64,44.12,4.44,51.11,10.03,13.58,0.00,0.00,2.45
1,162.06,104.29,156.67,92.24,6.05,3.50,4.00,5.39,6.92,23.33,3.00,10.19,37.29,0.00,75.00,7.57,0.00,0.00,0.00,0.00,61.08,46.67,10.00,16.87,44.76,4.44,53.33,10.39,13.82,0.00,0.00,2.54
1,164.26,104.29,160.00,97.12,7.84,4.50,5.00,7.86,9.33,33.33,4.00,14.41,37.07,0.00,73.33,7.68,0.00,0.00,0.00,0.00,62.35,53.33,10.00,17.14,44.48,2.22,53.33,10.53,13.99,0.00,0.00,2.63
1,164.69,102.86,156.67,96.11,7.89,4.50,5.00,7.86,9.63,33.33,4.00,14.78,36.36,0.00,73.33,7.56,0.00,0.00,0.00,0.00,63.13,53.33,10.00,17.12,43.57,2.22,51.11,9.88,13.45,0.00,0.00,2.40
1,166.37,100.00,153.33,100.14,7.90,4.50,5.00,7.86,9.63,33.33,4.00,14.78,36.12,0.00,71.67,7.71,0.00,0.00,0.00,0.00,63.42,53.33,10.00,16.98,43.81,2.22,53.33,9.88,13.34,0.00,0.00,2.28
1,165.61,97.14,143.33,100.98,7.91,4.50,5.00,7.87,9.64,33.33,4.00,14.78,34.97,0.00,68.33,7.24,0.00,0.00,0.00,0.00,63.28,53.33,10.00,17.02,43.77,2.22,53.33,9.90,13.61,0.00,0.00,2.27
1,164.13,92.86,146.67,103.05,7.92,4.50,5.00,7.87,9.64,33.33,4.00,14.78,35.89,0.00,71.67,7.35,0.00,0.00,0.00,0.00,64.71,63.33,10.00,17.70,44.10,2.22,53.33,9.86,13.68,0.00,0.00,2.29
1,163.83,94.29,146.67,100.71,7.91,4.50,5.00,7.86,9.63,33.33,4.00,14.78,35.02,0.00,66.67,7.08,0.00,0.00,0.00,0.00,65.10,66.67,20.00,18.14,45.14,2.22,57.78,10.24,13.64,0.00,0.00,2.28
1,159.40,92.86,136.67,95.32,6.87,3.00,4.00,7.24,9.63,33.33,4.00,14.78,33.80,0.00,65.00,6.54,0.00,0.00,0.00,0.00,65.77,66.67,25.00,18.30,45.08,2.22,57.78,9.93,13.10,0.00,0.00,2.08
1,164.48,95.71,146.67,99.37,4.88,2.00,2.50,4.95,9.64,33.33,4.00,14.78,33.52,0.00,63.33,6.44,0.00,0.00,0.00,0.00,63.49,66.67,25.00,17.86,45.74,2.22,62.22,10.27,13.51,0.00,0.00,2.14
1,164.04,92.86,150.00,99.09,4.65,2.00,2.50,4.78,9.64,33.33,4.00,14.78,32.04,0.00,60.00,6.04,0.00,0.00,0.00,0.00,63.55,66.67,25.00,17.52,45.01,0.00,60.00,10.04,13.46,0.00,0.00,2.04
1,165.65,94.29,150.00,100.21,4.64,2.00,2.50,4.77,9.64,33.33,4.00,14.78,32.46,0.00,60.00,6.41,0.00,0.00,0.00,0.00,64.83,73.33,25.00,18.99,44.71,0.00,64.44,10.02,13.41,0.00,0.00,1.94
1,163.79,92.86,143.33,99.44,4.64,2.00,2.50,4.77,9.64,33.33,4.00,14.78,32.13,0.00,58.33,6.41,0.00,0.00,0.00,0.00,64.78,73.33,25.00,18.93,44.64,0.00,64.44,9.80,12.75,0.00,0.00,1.86
1,160.68,91.43,133.33,97.45,4.92,2.50,3.00,4.84,9.66,33.33,4.00,14.78,31.76,0.00,60.00,5.91,0.00,0.00,0.00,0.00,63.70,70.00,25.00,18.67,44.36,0.00,64.44,9.79,12.67,0.00,0.00,1.83
1,157.04,87.14,126.67,97.53,6.81,3.50,4.00,6.77,9.66,33.33,4.00,14.78,31.05,0.00,55.00,5.70,0.00,0.00,0.00,0.00,60.92,70.00,25.00,16.41,42.82,0.00,64.44,8.80,12.53,0.00,0.00,1.84
1,158.43,90.00,126.67,98.59,7.07,3.50,4.00,6.99,9.67,33.33,4.00,14.78,31.99,0.00,58.33,5.96,0.00,0.00,0.00,0.00,59.71,66.67,30.00,16.11,41.14,0.00,57.78,8.32,12.77,0.00,0.00,1.89
1,152.41,85.71,120.00,95.67,7.08,3.50,4.00,6.99,7.78,26.67,3.00,11.68,30.40,0.00,53.33,5.59,0.00,0.00,0.00,0.00,57.91,60.00,30.00,14.84,40.08,0.00,53.33,8.21,12.46,0.00,0.00,1.82
1,152.90,85.71,116.67,95.06,7.08,3.50,4.00,6.99,5.75,20.00,2.00,8.02,30.32,0.00,53.33,5.44,0.00,0.00,0.00,0.00,56.33,56.67,25.00,13.56,39.08,0.00,51.11,7.76,12.86,0.00,0.00,1.77
1,153.70,88.57,120.00,95.07,7.07,3.50,4.00,6.99,5.15,16.67,2.00,7.47,30.78,0.00,55.00,5.43,0.00,0.00,0.00,0.00,57.36,56.67,25.00,13.74,40.89,0.00,57.78,8.27,12.89,0.00,0.00,1.82
1,156.28,91.43,126.67,96.50,7.06,3.50,4.00,6.99,5.11,16.67,2.00,7.46,29.87,0.00,50.00,5.31,0.00,0.00,0.00,0.00,58.24,60.00,25.00,13.89,40.48,0.00,53.33,8.31,12.79,0.00,0.00,1.82
1,153.02,90.00,113.33,95.26,7.06,3.50,4.00,6.99,5.11,16.67,2.00,7.46,29.98,0.00,51.67,5.37,0.00,0.00,0.00,0.00,56.81,60.00,25.00,13.57,39.71,0.00,51.11,7.98,12.25,0.00,0.00,1.70
1,151.83,87.14,116.67,96.45,7.07,3.50,4.00,6.99,6.61,20.00,3.00,10.08,29.53,0.00,51.67,5.33,0.00,0.00,0.00,0.00,56.44,60.00,25.00,13.58,39.26,0.00,51.11,7.90,12.21,0.00,0.00,1.67
1,152.62,85.71,113.33,98.51,5.15,2.50,3.00,4.85,7.72,26.67,3.00,12.78,29.62,0.00,51.67,5.23,0.00,0.00,0.00,0.00,55.78,60.00,25.00,13.40,36.84,0.00,44.44,7.14,11.83,0.00,0.00,1.60
1,149.67,88.57,106.67,91.94,3.04,1.50,1.50,2.25,5.08,16.67,1.50,8.34,29.00,0.00,50.00,5.06,0.00,0.00,0.00,0.00,56.15,56.67,25.00,13.15,36.67,0.00,48.89,6.85,11.74,0.00,0.00,1.57
1,152.55,91.43,116.67,94.16,2.89,1.50,1.50,2.22,4.20,13.33,1.50,5.76,28.56,0.00,46.67,4.99,0.00,0.00,0.00,0.00,54.69,56.67,25.00,13.16,36.71,0.00,48.89,6.81,12.05,0.00,0.00,1.65
1,149.68,94.29,113.33,88.45,2.89,1.50,1.50,2.22,4.19,13.33,1.50,5.75,27.85,0.00,43.33,4.70,0.00,0.00,0.00,0.00,54.61,60.00,25.00,13.38,36.48,0.00,46.67,6.71,12.60,0.00,0.00,1.92
1,149.57,95.71,116.67,88.98,2.87,1.50,1.50,2.22,4.19,13.33,1.50,5.75,28.33,0.00,46.67,4.78,0.00,0.00,0.00,0.00,54.70,60.00,25.00,13.27,35.49,0.00,44.44,6.54,12.27,0.00,0.00,1.87
1,152.31,98.57,120.00,88.39,3.90,2.50,2.50,2.85,5.69,20.00,2.00,7.63,27.52,0.00,43.33,4.67,0.00,0.00,0.00,0.00,53.51,53.33,25.00,12.88,34.62,0.00,42.22,6.31,12.13,0.00,0.00,1.84
1,149.07,97.14,113.33,86.37,4.05,2.50,2.50,2.92,8.06,26.67,3.00,11.30,26.58,0.00,40.00,4.41,0.00,0.00,0.00,0.00,50.89,43.33,15.00,11.42,33.64,0.00,37.78,6.02,11.89,0.00,0.00,1.78
1,148.59,97.14,110.00,85.89,4.05,2.50,2.50,2.92,9.85,33.33,4.00,15.04,26.93,0.00,41.67,4.38,0.00,0.00,0.00,0.00,51.29,43.33,15.00,11.41,34.23,0.00,40.00,6.12,12.14,0.00,0.00,1.82
1,146.20,97.14,110.00,82.06,4.06,2.50,2.50,2.92,9.88,33.33,4.00,15.05,26.63,0.00,40.00,4.29,0.00,0.00,0.00,0.00,49.03,33.33,10.00,9.91,33.26,0.00,33.33,5.99,12.12,0.00,0.00,1.85
1,147.48,100.00,113.33,85.09,4.05,2.50,2.50,2.92,9.90,33.33,4.00,15.05,26.19,0.00,40.00,4.15,0.00,0.00,0.00,0.00,50.27,36.67,10.00,10.35,32.54,0.00,33.33,5.58,12.01,0.00,0.00,1.79
1,148.42,95.71,113.33,84.74,4.05,2.50,2.50,2.92,9.90,33.33,4.00,15.05,25.90,0.00,40.00,4.00,0.00,0.00,0.00,0.00,50.44,33.33,10.00,10.27,33.43,0.00,33.33,5.76,11.72,0.00,0.00,1.77
1,149.44,98.57,123.33,84.39,4.05,2.50,2.50,2.92,9.90,33.33,4.00,15.05,26.42,0.00,43.33,3.84,0.00,0.00,0.00,0.00,50.64,36.67,10.00,10.00,33.31,0.00,33.33,5.73,11.85,0.00,0.00,1.75
1,151.34,100.00,126.67,85.60,3.97,2.50,2.00,2.92,9.88,33.33,4.00,15.05,26.34,0.00,43.33,3.79,0.00,0.00,0.00,0.00,51.07,36.67,10.00,10.08,33.17,0.00,35.56,5.70,12.07,0.00,0.00,1.81
1,148.65,100.00,130.00,80.96,2.44,1.50,1.00,2.11,9.87,33.33,4.00,15.05,27.68,0.00,53.33,3.90,0.00,0.00,0.00,0.00,53.20,40.00,10.00,10.57,34.05,0.00,37.78,5.92,12.25,0.00,0.00,1.82
1,148.40,102.86,126.67,81.16,1.66,1.00,1.00,0.71,9.87,33.33,4.00,15.05,26.61,0.00,48.33,3.74,0.00,0.00,0.00,0.00,51.40,30.00,0.00,9.87,35.10,0.00,40.00,6.39,11.94,0.00,0.00,1.76
1,150.52,104.29,120.00,81.86,1.62,1.00,1.00,0.71,9.87,33.33,4.00,15.05,26.65,0.00,48.33,3.83,0.00,0.00,0.00,0.00,51.03,33.33,0.00,9.92,35.60,0.00,44.44,6.46,12.22,0.00,0.00,1.78
1,151.30,105.71,126.67,82.39,1.62,1.00,1.00,0.71,9.87,33.33,4.00,15.05,27.37,0.00,50.00,4.05,0.00,0.00,0.00,0.00,51.02,33.33,0.00,10.03,36.05,0.00,48.89,6.42,12.21,0.00,0.00,1.82
1,146.29,101.43,116.67,79.90,2.69,2.00,2.00,1.36,9.87,33.33,4.00,15.05,26.10,0.00,45.00,3.68,0.00,0.00,0.00,0.00,49.31,33.33,0.00,9.63,35.02,0.00,42.22,6.17,12.23,0.00,0.00,1.82
1,151.69,101.43,126.67,84.69,4.31,3.00,3.50,2.90,9.87,33.33,4.00,15.05,25.64,0.00,41.67,3.54,0.00,0.00,0.00,0.00,47.70,33.33,0.00,9.49,34.44,0.00,40.00,6.00,12.60,0.00,0.00,1.89
1,150.88,102.86,126.67,82.72,5.38,4.00,4.00,3.29,9.87,33.33,4.00,15.05,26.46,0.00,45.00,3.85,0.00,0.00,0.00,0.00,46.35,30.00,0.00,9.15,34.92,0.00,42.22,5.89,13.31,0.00,0.00,2.09
1,148.93,104.29,123.33,82.34,5.86,4.50,4.50,3.85,9.46,33.33,3.50,15.05,27.94,0.00,45.00,4.26,0.00,0.00,0.00,0.00,49.22,36.67,5.00,10.38,35.05,0.00,42.22,6.09,13.89,0.00,0.00,2.19
1,150.66,107.14,126.67,80.27,5.88,4.50,4.50,3.85,6.88,23.33,2.50,10.94,28.17,0.00,45.00,4.50,0.00,0.00,0.00,0.00,48.91,33.33,5.00,10.63,35.98,0.00,42.22,6.40,15.04,0.00,0.00,2.36
1,149.63,101.43,126.67,81.83,5.88,4.50,4.50,3.85,6.18,20.00,2.50,9.31,29.57,0.00,50.00,5.03,0.00,0.00,0.00,0.00,48.26,33.33,5.00,10.46,36.19,0.00,37.78,6.60,15.10,0.00,0.00,2.24
1,147.40,98.57,120.00,81.83,5.88,4.50,4.50,3.85,6.16,20.00,2.50,9.31,31.06,0.00,55.00,5.43,0.00,0.00,0.00,0.00,46.97,30.00,5.00,10.08,36.28,0.00,37.78,6.60,15.35,0.00,0.00,2.47
1,149.19,97.14,120.00,84.91,5.88,4.50,4.50,3.85,6.14,20.00,2.50,9.31,31.95,0.00,56.67,5.83,0.00,0.00,0.00,0.00,46.28,26.67,5.00,9.64,35.50,0.00,35.56,6.35,15.32,0.00,0.00,2.36
1,149.58,98.57,120.00,83.83,5.88,4.50,4.50,3.85,8.18,26.67,3.50,12.74,32.13,0.00,55.00,5.83,0.00,0.00,0.00,0.00,48.18,30.00,5.00,10.53,36.15,0.00,40.00,6.61,15.82,0.00,0.00,2.38
1,146.44,98.57,116.67,82.08,5.18,4.00,3.50,3.62,9.06,26.67,4.00,14.77,32.27,0.00,55.00,5.78,0.00,0.00,0.00,0.00,47.38,30.00,5.00,10.36,37.19,0.00,42.22,6.92,15.89,0.00,0.00,2.43
1,148.41,98.57,126.67,83.72,4.72,3.50,3.50,3.15,8.51,26.67,3.50,13.64,34.29,0.00,60.00,6.41,0.00,0.00,0.00,0.00,48.37,33.33,5.00,10.69,38.57,0.00,44.44,7.36,16.93,0.00,0.00,2.60
1,150.19,98.57,133.33,84.75,4.71,3.50,3.50,3.15,6.46,20.00,2.50,9.73,35.16,0.00,60.00,7.00,0.00,0.00,0.00,0.00,48.19,33.33,5.00,10.74,38.60,0.00,42.22,7.46,16.88,0.00,0.00,2.67
1,148.08,97.14,123.33,83.73,4.73,3.50,3.50,3.15,6.32,20.00,2.50,9.68,35.27,0.00,58.33,7.05,0.00,0.00,0.00,0.00,48.51,33.33,5.00,10.82,37.94,0.00,42.22,7.23,17.16,0.00,0.00,2.77
1,151.76,98.57,126.67,85.99,4.73,3.50,3.50,3.15,6.31,20.00,2.50,9.68,37.15,0.00,65.00,7.40,0.00,0.00,0.00,0.00,48.30,33.33,5.00,10.81,37.25,0.00,40.00,6.82,17.02,0.00,0.00,2.75
1,151.32,102.86,123.33,85.31,6.89,4.50,5.00,5.44,7.19,23.33,3.00,10.59,36.98,0.00,65.00,7.42,0.00,0.00,0.00,0.00,47.83,36.67,5.00,10.87,38.00,0.00,44.44,6.96,16.80,0.00,0.00,2.69
1,148.34,100.00,120.00,83.08,7.88,5.50,6.00,6.20,9.37,33.33,4.00,14.15,37.20,0.00,65.00,7.50,0.00,0.00,0.00,0.00,44.44,26.67,5.00,9.44,36.89,0.00,40.00,6.60,17.18,0.00,0.00,2.75
1,147.80,98.57,116.67,83.87,7.91,5.50,6.00,6.21,9.66,33.33,4.00,14.51,37.50,0.00,63.33,7.69,0.00,0.00,0.00,0.00,44.36,26.67,5.00,9.52,36.56,0.00,40.00,6.64,17.41,0.00,0.00,2.88
1,148.07,97.14,113.33,83.85,7.91,5.50,6.00,6.21,9.67,33.33,4.00,14.51,37.39,0.00,60.00,7.79,0.00,0.00,0.00,0.00,45.06,30.00,5.00,10.43,35.43,0.00,35.56,6.32,17.35,0.00,0.00,2.91
1,149.35,97.14,120.00,85.72,7.91,5.50,6.00,6.21,9.67,33.33,4.00,14.51,38.10,0.00,61.67,7.95,0.00,0.00,0.00,0.00,45.51,36.67,5.00,10.91,35.23,0.00,35.56,6.15,17.75,0.00,0.00,2.99
1,150.37,95.71,123.33,85.28,7.92,5.50,6.00,6.21,9.67,33.33,4.00,14.51,38.34,0.00,61.67,8.02,0.00,0.00,0.00,0.00,45.70,36.67,5.00,11.13,35.92,0.00,33.33,6.25,17.70,0.00,0.00,3.00
1,146.43,95.71,120.00,81.35,7.92,5.50,6.00,6.21,9.67,33.33,4.00,14.51,38.06,0.00,61.67,8.05,0.00,0.00,0.00,0.00,45.05,36.67,5.00,10.98,35.66,0.00,31.11,6.43,17.81,0.00,0.00,3.05
1,148.76,95.71,120.00,84.08,6.92,4.50,5.00,5.62,9.67,33.33,4.00,14.51,38.80,0.00,66.67,8.14,0.00,0.00,0.00,0.00,46.14,40.00,5.00,11.34,36.02,0.00,35.56,6.44,17.83,0.00,0.00,3.07
1,146.67,98.57,116.67,81.04,5.32,3.50,3.50,4.12,9.67,33.33,4.00,14.51,39.62,0.00,71.67,8.43,0.00,0.00,0.00,0.00,47.69,46.67,5.00,11.91,36.28,0.00,35.56,6.55,17.92,0.00,0.00,3.01
1,144.49,97.14,120.00,79.61,4.91,3.00,3.50,3.91,9.67,33.33,4.00,14.51,39.39,0.00,70.00,8.38,0.00,0.00,0.00,0.00,48.71,53.33,5.00,12.18,36.10,0.00,35.56,6.44,17.74,0.00,0.00,3.07
1,145.86,94.29,123.33,81.01,3.66,2.00,2.50,3.07,9.66,33.33,4.00,14.51,39.43,0.00,73.33,8.24,0.00,0.00,0.00,0.00,49.30,53.33,0.00,12.97,36.19,0.00,37.78,6.56,17.75,0.00,0.00,3.12
1,145.72,94.29,123.33,77.72,3.63,2.00,2.50,3.07,9.66,33.33,4.00,14.51,40.08,0.00,75.00,8.45,0.00,0.00,0.00,0.00,48.94,53.33,0.00,11.70,35.93,0.00,37.78,6.20,17.61,0.00,0.00,3.22
1,150.84,94.29,130.00,85.49,4.11,2.50,3.50,3.25,9.66,33.33,4.00,14.51,40.56,0.00,76.67,8.56,0.00,0.00,0.00,0.00,50.25,53.33,0.00,12.07,35.73,0.00,37.78,6.07,17.26,0.00,0.00,3.16
1,152.76,94.29,140.00,89.17,5.77,3.50,4.50,4.68,9.66,33.33,4.00,14.51,39.38,0.00,73.33,8.24,0.00,0.00,0.00,0.00,50.64,53.33,0.00,12.09,35.79,0.00,40.00,6.09,17.15,0.00,0.00,3.04
1,157.66,98.57,146.67,92.81,7.81,4.50,6.00,7.10,9.66,33.33,4.00,14.51,38.67,0.00,73.33,7.93,0.00,0.00,0.00,0.00,51.38,53.33,0.00,12.25,35.15,0.00,40.00,6.00,17.36,0.00,0.00,3.05
1,154.51,95.71,140.00,91.69,8.04,4.50,6.00,7.27,7.78,26.67,3.00,11.41,39.31,0.00,75.00,8.27,0.00,0.00,0.00,0.00,50.13,50.00,0.00,11.65,35.13,0.00,37.78,5.95,17.34,0.00,0.00,3.08
1,158.08,95.71,146.67,95.42,8.04,4.50,6.00,7.27,5.70,20.00,2.00,7.59,38.95,0.00,73.33,8.22,0.00,0.00,0.00,0.00,51.51,53.33,0.00,12.06,35.58,0.00,37.78,6.08,17.20,0.00,0.00,3.25
1,157.43,95.71,146.67,94.11,8.04,4.50,6.00,7.27,3.98,13.33,1.50,4.90,38.27,0.00,70.00,8.04,0.00,0.00,0.00,0.00,50.94,56.67,0.00,12.02,35.00,0.00,35.56,6.03,17.09,0.00,0.00,3.33
1,157.24,95.71,146.67,94.24,8.04,4.50,6.00,7.27,3.79,13.33,1.50,4.84,38.13,0.00,71.67,7.72,0.00,0.00,0.00,0.00,54.07,63.33,10.00,13.09,33.97,0.00,35.56,5.44,17.01,0.00,0.00,3.22
1,157.53,98.57,150.00,93.74,8.03,4.50,6.00,7.27,3.79,13.33,1.50,4.84,37.94,0.00,75.00,7.62,0.00,0.00,0.00,0.00,56.66,70.00,10.00,13.72,34.34,0.00,35.56,5.53,16.81,0.00,0.00,3.13
1,152.88,97.14,146.67,91.32,8.03,4.50,6.00,7.27,5.28,20.00,2.50,7.46,38.01,0.00,71.67,8.02,0.00,0.00,0.00,0.00,58.55,73.33,10.00,14.27,35.12,0.00,37.78,5.69,16.86,0.00,0.00,3.17
1,156.60,98.57,156.67,93.78,6.11,3.50,5.00,5.14,6.86,30.00,2.50,9.93,37.99,0.00,71.67,7.94,0.00,0.00,0.00,0.00,59.65,73.33,10.00,14.39,35.23,0.00,37.78,5.72,17.22,0.00,0.00,3.22
1,152.51,97.14,146.67,90.76,4.94,2.50,3.50,4.23,4.85,20.00,1.50,7.72,37.38,0.00,70.00,7.83,0.00,0.00,0.00,0.00,59.28,66.67,10.00,13.99,34.46,0.00,35.56,5.61,18.36,0.00,0.00,3.73
1,158.09,101.43,153.33,96.62,4.85,2.50,3.50,4.21,4.00,16.67,1.50,5.28,37.50,0.00,70.00,7.79,0.00,0.00,0.00,0.00,61.03,73.33,15.00,14.88,34.94,0.00,35.56,5.69,18.12,0.00,0.00,3.68
1,160.79,102.86,160.00,99.28,4.86,2.50,3.50,4.21,3.97,16.67,1.50,5.28,37.48,0.00,70.00,7.71,0.00,0.00,0.00,0.00,57.89,66.67,15.00,13.60,34.32,0.00,33.33,5.44,18.43,0.00,0.00,3.70
1,160.29,100.00,156.67,100.74,4.86,2.50,3.50,4.21,3.97,16.67,1.50,5.28,36.99,0.00,68.33,7.78,0.00,0.00,0.00,0.00,56.87,63.33,15.00,13.12,34.00,0.00,31.11,5.37,18.36,0.00,0.00,3.69
1,162.67,101.43,166.67,102.71,6.72,3.50,4.50,6.27,5.27,23.33,2.00,6.70,37.67,0.00,73.33,7.74,0.00,0.00,0.00,0.00,58.26,63.33,15.00,13.64,34.61,0.00,35.56,5.56,18.35,0.00,0.00,3.71
1,163.97,100.00,170.00,104.82,7.72,4.50,5.50,7.03,7.64,30.00,3.00,10.34,38.64,0.00,73.33,8.08,0.00,0.00,0.00,0.00,57.39,60.00,15.00,13.30,34.52,0.00,35.56,5.59,18.44,0.00,0.00,3.82
1,163.60,97.14,170.00,105.58,7.83,4.50,5.50,7.07,9.42,36.67,4.00,14.07,38.86,0.00,73.33,8.50,0.00,0.00,0.00,0.00,58.07,63.33,15.00,13.26,34.69,0.00,35.56,5.71,19.20,0.00,0.00,4.10
1,166.90,97.14,173.33,108.76,7.83,4.50,5.50,7.07,9.45,36.67,4.00,14.09,39.84,0.00,71.67,8.66,0.00,0.00,0.00,0.00,57.93,63.33,15.00,13.17,35.89,0.00,37.78,5.81,19.10,0.00,0.00,4.20
1,168.84,98.57,173.33,110.30,7.83,4.50,5.50,7.07,9.46,36.67,4.00,14.09,40.84,0.00,71.67,9.48,0.00,0.00,0.00,0.00,58.73,66.67,15.00,13.58,37.37,2.22,44.44,6.67,19.17,0.00,0.00,4.18
1,168.83,100.00,166.67,110.13,7.83,4.50,5.50,7.07,9.46,36.67,4.00,14.09,40.14,0.00,68.33,9.37,0.00,0.00,0.00,0.00,57.28,63.33,15.00,12.79,36.82,2.22,42.22,6.49,19.42,0.00,0.00,4.16
1,173.39,101.43,180.00,115.57,7.83,4.50,5.50,7.07,9.46,36.67,4.00,14.09,39.26,0.00,65.00,9.09,0.00,0.00,0.00,0.00,57.55,63.33,15.00,13.37,39.65,4.44,48.89,7.27,19.21,0.00,0.00,4.04
1,171.59,104.29,176.67,112.15,7.69,4.50,5.00,7.07,9.46,36.67,4.00,14.09,40.18,5.00,66.67,9.45,0.00,0.00,0.00,0.00,57.94,66.67,15.00,14.09,41.04,4.44,55.56,8.09,19.35,0.00,0.00,4.10
1,169.07,102.86,170.00,107.02,6.16,3.50,3.50,6.32,9.46,36.67,4.00,14.09,40.34,5.00,68.33,9.50,0.00,0.00,0.00,0.00,57.66,66.67,15.00,14.05,40.66,4.44,55.56,8.23,19.61,0.00,0.00,4.28
1,173.87,108.57,183.33,110.69,4.14,2.50,2.00,3.49,9.46,36.67,4.00,14.09,41.85,5.00,75.00,9.83,0.00,0.00,0.00,0.00,58.44,70.00,15.00,14.35,42.04,4.44,55.56,8.57,19.31,0.00,0.00,4.30
1,174.12,108.57,186.67,108.46,3.45,2.00,2.00,2.86,9.47,36.67,4.00,14.09,41.68,5.00,75.00,9.52,0.00,0.00,0.00,0.00,56.35,70.00,15.00,13.73,41.99,4.44,53.33,8.47,19.34,0.00,0.00,4.29
1,172.48,107.14,180.00,108.12,3.43,2.00,2.00,2.86,9.47,36.67,4.00,14.09,42.41,5.00,78.33,9.81,0.00,0.00,0.00,0.00,56.81,73.33,15.00,13.97,40.69,4.44,51.11,8.07,18.65,0.00,0.00,4.00
1,170.84,108.57,176.67,104.62,4.70,3.00,3.00,3.77,9.47,36.67,4.00,14.09,43.62,5.00,83.33,9.99,0.00,0.00,0.00,0.00,56.08,73.33,15.00,13.54,40.95,4.44,51.11,8.03,18.47,0.00,0.00,3.87
1,170.77,107.14,173.33,107.03,7.06,4.00,5.00,6.18,9.47,36.67,4.00,14.09,42.96,5.00,86.67,9.66,0.00,0.00,0.00,0.00,51.94,60.00,5.00,11.99,40.60,4.44,51.11,8.06,18.66,0.00,0.00,3.97
1,167.29,102.86,170.00,104.53,8.83,5.00,6.00,8.65,9.47,36.67,4.00,14.09,42.38,5.00,85.00,9.57,0.00,0.00,0.00,0.00,50.48,60.00,5.00,11.80,40.95,4.44,51.11,8.08,18.95,0.00,0.00,4.01
1,164.01,100.00,160.00,102.68,8.87,5.00,6.00,8.66,9.05,33.33,3.50,14.09,41.18,5.00,81.67,8.94,0.00,0.00,0.00,0.00,47.51,50.00,5.00,10.99,42.32,4.44,53.33,9.03,18.92,0.00,0.00,3.98
1,159.96,98.57,146.67,100.38,8.86,5.00,6.00,8.66,6.58,23.33,2.50,10.11,41.48,5.00,81.67,8.96,0.00,0.00,0.00,0.00,47.64,50.00,5.00,11.19,42.82,4.44,55.56,9.36,18.88,0.00,0.00,4.03
0,157.53,94.29,143.33,98.27,8.85,5.00,6.00,8.66,5.96,20.00,2.50,8.82,40.71,5.00,80.00,8.80,0.00,0.00,0.00,0.00,46.41,50.00,5.00,11.00,42.86,4.44,57.78,9.48,18.04,0.00,0.00,3.75
0,152.24,88.57,133.33,94.06,8.86,5.00,6.00,8.66,5.93,20.00,2.50,8.82,40.38,5.00,81.67,8.69,0.00,0.00,0.00,0.00,45.30,46.67,0.00,10.81,43.40,4.44,57.78,9.80,17.35,0.00,0.00,3.36
0,145.66,84.29,120.00,87.11,8.85,5.00,6.00,8.66,5.93,20.00,2.50,8.82,40.29,5.00,80.00,8.94,0.00,0.00,0.00,0.00,45.54,46.67,0.00,10.49,43.83,4.44,60.00,10.14,17.24,0.00,0.00,3.37
0,141.28,82.86,113.33,84.43,8.85,5.00,6.00,8.66,7.71,30.00,3.50,11.43,40.35,5.00,78.33,9.07,0.00,0.00,0.00,0.00,46.09,46.67,0.00,10.61,44.71,4.44,60.00,10.67,17.61,0.00,0.00,3.40
0,135.83,78.57,103.33,77.42,7.57,4.50,5.00,7.88,7.65,30.00,3.00,11.41,39.33,5.00,73.33,8.65,0.00,0.00,0.00,0.00,44.43,43.33,0.00,9.78,44.45,4.44,55.56,10.65,17.65,0.00,0.00,3.47
0,130.27,77.14,93.33,74.24,6.20,3.50,4.00,5.96,5.90,23.33,2.00,8.00,38.42,5.00,70.00,8.33,0.00,0.00,0.00,0.00,43.59,43.33,0.00,9.66,44.31,4.44,55.56,11.09,17.50,0.00,0.00,3.39
0,127.65,75.71,90.00,69.73,6.59,4.00,5.00,6.12,3.79,16.67,1.00,4.05,37.25,5.00,66.67,7.88,0.00,0.00,0.00,0.00,43.62,43.33,0.00,9.65,45.81,4.44,57.78,11.67,16.34,0.00,0.00,2.95
0,121.20,72.86,80.00,64.64,8.58,5.50,6.00,8.28,3.65,16.67,1.00,4.00,36.12,5.00,65.00,7.77,0.00,0.00,0.00,0.00,41.74,33.33,0.00,8.88,45.21,4.44,55.56,11.90,16.21,0.00,0.00,2.85
0,114.54,68.57,73.33,60.37,9.70,6.50,7.50,9.12,4.60,20.00,1.50,4.65,34.55,5.00,66.67,6.56,0.00,0.00,0.00,0.00,38.72,23.33,0.00,7.89,42.25,2.22,48.89,11.04,15.67,0.00,0.00,2.57
0,108.62,61.43,66.67,57.37,9.76,6.50,7.50,9.13,6.59,26.67,2.50,8.59,35.82,5.00,71.67,6.80,0.00,0.00,0.00,0.00,37.94,23.33,0.00,7.68,42.20,2.22,48.89,10.95,15.38,0.00,0.00,2.56
0,100.73,57.14,53.33,48.79,11.27,7.00,8.50,10.89,7.27,30.00,2.50,9.51,36.07,5.00,70.00,7.12,0.00,0.00,0.00,0.00,37.00,16.67,0.00,7.36,41.92,0.00,46.67,11.19,14.75,0.00,0.00,2.46
0,95.69,52.86,46.67,45.50,13.67,8.50,10.00,13.68,7.31,30.00,2.50,9.51,33.49,0.00,63.33,6.34,0.00,0.00,0.00,0.00,34.68,13.33,0.00,5.96,39.31,0.00,42.22,10.24,14.43,0.00,0.00,2.34
0,88.72,48.57,36.67,40.87,13.97,8.50,10.00,13.93,7.32,30.00,2.50,9.51,33.55,0.00,63.33,6.25,0.00,0.00,0.00,0.00,33.33,13.33,0.00,5.56,37.51,0.00,37.78,9.66,14.25,0.00,0.00,2.22
0,81.12,45.71,23.33,34.01,13.95,8.50,10.00,13.93,7.32,30.00,2.50,9.51,31.85,0.00,56.67,5.81,0.00,0.00,0.00,0.00,31.18,10.00,0.00,5.01,36.43,0.00,37.78,9.26,13.60,0.00,0.00,2.02
0,73.80,38.57,13.33,29.28,13.95,8.50,10.00,13.93,7.31,30.00,2.50,9.51,31.55,0.00,55.00,5.81,0.00,0.00,0.00,0.00,30.55,10.00,0.00,4.94,34.97,0.00,37.78,8.99,13.33,0.00,0.00,1.84
0,68.88,34.29,10.00,25.96,13.94,8.50,10.00,13.93,7.32,30.00,2.50,9.51,30.68,0.00,51.67,5.57,0.00,0.00,0.00,0.00,28.20,3.33,0.00,4.47,34.98,0.00,37.78,9.05,12.95,0.00,0.00,1.79
0,63.76,28.57,3.33,23.98,12.77,7.50,9.00,13.10,7.32,30.00,2.50,9.51,30.20,0.00,50.00,5.50,0.00,0.00,0.00,0.00,27.56,3.33,0.00,4.35,34.81,0.00,37.78,9.08,13.23,0.00,0.00,1.82
0,60.23,24.29,0.00,19.76,10.76,6.50,7.50,10.77,7.32,30.00,2.50,9.51,29.42,0.00,41.67,5.50,0.00,0.00,0.00,0.00,26.91,3.33,0.00,4.27,34.35,0.00,37.78,8.96,12.24,0.00,0.00,1.60
0,60.26,24.29,0.00,19.66,8.64,5.50,6.00,8.16,7.32,30.00,2.50,9.51,29.72,0.00,43.33,5.60,0.00,0.00,0.00,0.00,25.67,3.33,0.00,4.08,33.88,0.00,37.78,8.85,11.74,0.00,0.00,1.48
0,59.37,21.43,0.00,19.00,8.50,5.50,6.00,8.12,7.32,30.00,2.50,9.51,28.94,0.00,41.67,5.47,0.00,0.00,0.00,0.00,23.91,3.33,0.00,3.56,31.89,0.00,33.33,7.86,11.45,0.00,0.00,1.42
0,54.13,17.14,0.00,15.63,8.49,5.50,6.00,8.12,7.32,30.00,2.50,9.51,28.99,0.00,43.33,5.48,0.00,0.00,0.00,0.00,21.99,3.33,0.00,3.23,30.09,0.00,28.89,7.32,11.49,0.00,0.00,1.39
0,55.08,18.57,3.33,17.10,8.49,5.50,6.00,8.12,7.32,30.00,2.50,9.51,29.22,0.00,43.33,5.54,0.00,0.00,0.00,0.00,21.20,3.33,0.00,2.95,29.78,0.00,28.89,7.15,11.08,0.00,0.00,1.34
0,53.39,18.57,3.33,16.40,8.49,5.50,6.00,8.12,7.32,30.00,2.50,9.51,29.58,0.00,43.33,5.68,0.00,0.00,0.00,0.00,20.00,3.33,0.00,2.77,28.20,0.00,24.44,6.66,10.62,0.00,0.00,1.25
0,53.58,17.14,3.33,16.36,8.53,5.50,6.00,8.13,7.33,30.00,2.50,9.51,29.05,0.00,45.00,5.50,0.00,0.00,0.00,0.00,18.91,3.33,0.00,2.51,28.14,0.00,24.44,6.58,10.07,0.00,0.00,1.17
0,51.00,15.71,3.33,14.66,8.64,5.50,6.00,8.14,5.68,20.00,1.50,7.15,29.08,0.00,46.67,5.23,0.00,0.00,0.00,0.00,17.19,0.00,0.00,1.91,26.57,0.00,22.22,5.62,10.34,0.00,0.00,1.29
0,49.98,15.71,3.33,14.25,9.56,6.00,6.50,8.33,4.46,13.33,1.50,5.71,28.89,0.00,48.33,5.20,0.00,0.00,0.00,0.00,15.68,0.00,0.00,1.60,25.37,0.00,20.00,5.12,9.88,0.00,0.00,1.20
0,49.84,15.71,3.33,13.87,12.26,7.50,8.50,10.95,4.14,13.33,1.50,5.52,28.41,0.00,48.33,5.10,0.00,0.00,0.00,0.00,15.03,0.00,0.00,1.43,24.25,0.00,17.78,4.29,9.53,0.00,0.00,1.02
0,47.75,14.29,3.33,13.00,12.81,8.00,8.50,12.54,4.12,13.33,1.50,5.52,28.62,0.00,48.33,5.15,0.00,0.00,0.00,0.00,14.43,0.00,0.00,1.32,22.66,0.00,17.78,3.61,9.18,0.00,0.00,0.95
0,47.52,14.29,3.33,13.10,11.77,7.00,8.00,10.97,4.11,13.33,1.50,5.52,29.18,0.00,50.00,5.29,0.00,0.00,0.00,0.00,13.60,0.00,0.00,1.21,21.04,0.00,13.33,2.80,8.97,0.00,0.00,0.92
0,47.95,12.86,3.33,13.46,11.26,6.50,7.50,10.33,5.60,20.00,2.50,8.14,28.22,0.00,45.00,5.07,0.00,0.00,0.00,0.00,12.67,0.00,0.00,1.01,21.02,0.00,13.33,2.66,8.90,0.00,0.00,0.96
0,48.85,15.71,3.33,15.22,12.76,7.50,9.00,11.81,4.94,23.33,1.50,7.63,27.87,0.00,43.33,5.07,0.00,0.00,0.00,0.00,12.88,0.00,0.00,1.04,21.28,0.00,13.33,2.65,9.46,0.00,0.00,1.07
0,49.03,14.29,3.33,15.45,14.69,8.50,10.50,14.26,3.30,16.67,1.00,4.03,27.35,0.00,45.00,4.76,0.00,0.00,0.00,0.00,11.62,0.00,0.00,0.73,19.38,0.00,6.67,2.38,9.54,0.00,0.00,1.17
0,49.09,15.71,3.33,15.39,13.97,8.50,10.00,13.68,3.25,16.67,1.00,4.02,27.40,0.00,45.00,4.56,0.00,0.00,0.00,0.00,11.31,0.00,0.00,0.64,18.54,0.00,4.44,1.83,9.47,0.00,0.00,1.12
0,49.09,17.14,3.33,15.19,16.09,9.50,11.50,15.43,3.24,16.67,1.00,4.02,26.95,0.00,43.33,4.52,0.00,0.00,0.00,0.00,12.06,0.00,0.00,0.82,18.89,0.00,4.44,1.91,9.33,0.00,0.00,1.12
0,48.72,15.71,3.33,15.25,18.04,10.50,13.50,18.96,3.71,20.00,1.00,4.21,27.58,0.00,45.00,4.77,0.00,0.00,0.00,0.00,12.63,0.00,0.00,0.92,19.29,0.00,4.44,1.94,9.46,0.00,0.00,1.14
0,51.89,17.14,6.67,17.16,19.38,12.00,14.50,19.99,5.66,26.67,2.00,7.40,28.09,0.00,48.33,5.10,0.00,0.00,0.00,0.00,13.77,0.00,0.00,1.08,20.29,0.00,4.44,2.09,9.51,0.00,0.00,1.12
0,51.89,17.14,6.67,17.44,21.48,13.00,16.00,22.44,7.74,33.33,3.00,11.12,28.42,0.00,50.00,5.09,0.00,0.00,0.00,0.00,14.04,0.00,0.00,1.11,20.23,0.00,4.44,2.03,9.84,0.00,0.00,1.16
0,52.26,17.14,6.67,17.57,21.61,13.00,16.00,22.47,7.81,33.33,3.00,11.13,27.87,0.00,48.33,5.02,0.00,0.00,0.00,0.00,14.30,0.00,0.00,1.11,20.12,0.00,4.44,1.98,9.78,0.00,0.00,1.19
0,52.78,18.57,6.67,17.85,21.59,13.00,16.00,22.47,7.82,33.33,3.00,11.13,28.34,0.00,50.00,5.05,0.00,0.00,0.00,0.00,14.99,0.00,0.00,1.21,20.56,0.00,4.44,2.01,9.85,0.00,0.00,1.20
0,56.25,21.43,10.00,19.94,21.59,13.00,16.00,22.47,7.81,33.33,3.00,11.13,27.12,0.00,43.33,4.87,0.00,0.00,0.00,0.00,15.26,0.00,0.00,1.26,21.29,0.00,4.44,2.28,9.92,0.00,0.00,1.21
0,56.86,24.29,10.00,21.11,21.58,13.00,16.00,22.47,7.81,33.33,3.00,11.13,28.42,0.00,46.67,5.28,0.00,0.00,0.00,0.00,16.54,0.00,0.00,1.46,21.47,0.00,4.44,2.32,10.15,0.00,0.00,1.25
0,57.98,24.29,10.00,21.00,21.58,13.00,16.00,22.47,7.81,33.33,3.00,11.13,29.73,0.00,48.33,5.64,0.00,0.00,0.00,0.00,17.33,0.00,0.00,1.58,21.38,0.00,4.44,2.31,10.76,0.00,0.00,1.45
0,58.00,21.43,6.67,20.20,21.58,13.00,16.00,22.47,7.81,33.33,3.00,11.13,29.63,0.00,50.00,5.65,0.00,0.00,0.00,0.00,17.85,0.00,0.00,1.63,21.79,0.00,4.44,2.31,11.37,0.00,0.00,1.65
0,58.67,22.86,6.67,20.12,21.58,13.00,16.00,22.47,7.81,33.33,3.00,11.13,29.42,0.00,51.67,5.36,0.00,0.00,0.00,0.00,18.40,0.00,0.00,1.69,21.33,0.00,4.44,2.21,11.83,0.00,0.00,1.76
0,59.07,24.29,10.00,20.95,21.55,13.00,16.00,22.47,7.81,33.33,3.00,11.13,29.37,0.00,48.33,5.34,0.00,0.00,0.00,0.00,18.91,0.00,0.00,1.74,21.45,0.00,4.44,2.29,12.17,0.00,0.00,1.79
0,59.09,24.29,10.00,20.62,21.42,13.00,16.00,22.46,7.81,33.33,3.00,11.13,29.84,0.00,50.00,5.56,0.00,0.00,0.00,0.00,19.02,0.00,0.00,1.77,21.71,0.00,4.44,2.49,12.38,0.00,0.00,1.85
0,60.91,27.14,10.00,22.05,20.88,12.50,15.50,22.28,7.82,33.33,3.00,11.13,30.46,0.00,55.00,5.80,0.00,0.00,0.00,0.00,19.51,0.00,0.00,1.85,21.62,0.00,4.44,2.51,12.95,0.00,0.00,1.93
0,60.61,25.71,10.00,22.06,19.05,11.50,14.00,20.43,7.82,33.33,3.00,11.13,31.39,0.00,55.00,6.09,0.00,0.00,0.00,0.00,19.81,0.00,0.00,1.90,21.53,0.00,4.44,2.47,13.51,0.00,0.00,2.03
0,60.33,25.71,10.00,21.80,17.00,10.50,13.00,17.96,7.83,33.33,3.00,11.13,30.92,0.00,58.33,5.85,0.00,0.00,0.00,0.00,19.90,0.00,0.00,1.90,21.68,0.00,4.44,2.45,13.77,0.00,0.00,2.08
0,60.43,25.71,10.00,21.66,16.18,9.50,12.00,17.67,7.84,33.33,3.00,11.13,30.52,0.00,55.00,5.80,0.00,0.00,0.00,0.00,19.56,0.00,0.00,1.88,21.11,0.00,2.22,2.36,14.33,0.00,0.00,2.24
0,62.60,28.57,13.33,22.72,15.72,9.50,12.00,17.28,7.43,30.00,2.50,11.13,30.72,0.00,56.67,5.75,0.00,0.00,0.00,0.00,19.90,0.00,0.00,1.89,20.73,0.00,2.22,2.31,14.55,0.00,0.00,2.22
0,63.20,28.57,13.33,21.58,15.12,9.00,11.50,16.42,5.41,20.00,2.00,7.55,31.00,0.00,55.00,5.97,0.00,0.00,0.00,0.00,19.61,0.00,0.00,1.93,20.88,0.00,2.22,2.37,15.13,0.00,0.00,2.31
0,63.93,30.00,13.33,21.72,14.36,9.00,11.50,14.98,5.06,16.67,2.00,7.13,30.60,0.00,56.67,5.92,0.00,0.00,0.00,0.00,19.10,0.00,0.00,1.78,20.84,0.00,2.22,2.35,14.48,0.00,0.00,2.12
0,63.61,27.14,13.33,21.56,14.24,9.00,11.50,14.61,5.05,16.67,2.00,7.13,30.30,0.00,55.00,5.92,0.00,0.00,0.00,0.00,18.77,0.00,0.00,1.74,20.24,0.00,0.00,2.20,15.23,0.00,0.00,2.24
0,62.94,27.14,13.33,21.38,13.66,8.50,11.50,13.83,5.06,16.67,2.00,7.13,30.44,0.00,56.67,5.86,0.00,0.00,0.00,0.00,17.83,0.00,0.00,1.58,20.59,0.00,0.00,2.18,15.20,0.00,0.00,2.25
0,64.59,30.00,13.33,22.10,13.28,8.50,12.00,11.42,6.65,23.33,3.00,10.10,30.61,0.00,60.00,5.77,0.00,0.00,0.00,0.00,18.64,0.00,0.00,1.75,21.06,0.00,0.00,2.22,15.27,0.00,0.00,2.26
0,63.41,30.00,10.00,20.57,13.93,8.50,12.50,13.36,6.88,23.33,3.00,10.89,28.82,0.00,51.67,5.08,0.00,0.00,0.00,0.00,17.70,0.00,0.00,1.61,20.18,0.00,0.00,2.11,15.47,0.00,0.00,2.34
0,63.13,30.00,10.00,20.19,13.64,8.50,12.50,12.85,5.78,23.33,2.00,8.20,29.18,0.00,53.33,5.27,0.00,0.00,0.00,0.00,17.45,0.00,0.00,1.56,19.67,0.00,0.00,2.05,15.15,0.00,0.00,2.30
0,64.46,32.86,10.00,20.56,13.58,8.50,12.50,12.75,5.57,23.33,2.00,7.94,29.24,0.00,55.00,5.24,0.00,0.00,0.00,0.00,17.06,0.00,0.00,1.55,19.58,0.00,0.00,2.02,15.69,0.00,0.00,2.37
0,63.56,32.86,10.00,20.05,15.51,9.50,13.50,14.90,5.56,23.33,2.00,7.94,29.44,0.00,55.00,5.17,0.00,0.00,0.00,0.00,16.33,0.00,0.00,1.44,19.43,0.00,0.00,2.02,15.60,0.00,0.00,2.35
0,61.43,31.43,6.67,18.75,18.09,10.50,15.50,18.39,6.20,26.67,2.00,8.23,30.21,0.00,61.67,5.30,0.00,0.00,0.00,0.00,16.25,0.00,0.00,1.41,18.71,0.00,0.00,1.79,15.83,0.00,0.00,2.41
0,59.75,28.57,6.67,16.96,20.80,12.00,17.50,21.48,8.01,33.33,3.00,11.46,29.69,0.00,60.00,4.99,0.00,0.00,0.00,0.00,15.61,0.00,0.00,1.32,18.60,0.00,0.00,1.79,15.92,0.00,0.00,2.44
0,60.28,28.57,6.67,16.93,21.68,12.50,18.00,23.19,8.69,36.67,3.00,12.35,28.76,0.00,60.00,4.69,0.00,0.00,0.00,0.00,15.31,0.00,0.00,1.21,18.37,0.00,0.00,1.70,15.53,0.00,0.00,2.31
0,60.64,30.00,6.67,17.04,21.71,12.50,18.00,23.19,8.71,36.67,3.00,12.35,27.93,0.00,56.67,4.45,0.00,0.00,0.00,0.00,14.83,0.00,0.00,1.14,18.15,0.00,0.00,1.68,15.25,0.00,0.00,2.18
0,59.68,30.00,6.67,16.94,21.71,12.50,18.00,23.19,8.72,36.67,3.00,12.35,28.45,0.00,55.00,4.72,0.00,0.00,0.00,0.00,14.30,0.00,0.00,1.07,18.51,0.00,0.00,1.69,15.28,0.00,0.00,2.13
0,56.60,27.14,3.33,15.02,21.71,12.50,18.00,23.19,8.72,36.67,3.00,12.35,27.97,0.00,53.33,4.67,0.00,0.00,0.00,0.00,14.19,0.00,0.00,1.07,17.88,0.00,0.00,1.55,15.42,0.00,0.00,2.26
0,57.86,28.57,3.33,15.45,21.71,12.50,18.00,23.19,8.71,36.67,3.00,12.35,27.52,0.00,51.67,4.43,0.00,0.00,0.00,0.00,14.19,0.00,0.00,1.11,17.63,0.00,0.00,1.36,15.08,0.00,0.00,2.17
0,58.76,28.57,6.67,15.14,21.72,12.50,18.00,23.19,8.70,36.67,3.00,12.35,27.29,0.00,48.33,4.37,0.00,0.00,0.00,0.00,13.48,0.00,0.00,1.06,17.89,0.00,0.00,1.37,14.81,0.00,0.00,2.14
0,60.56,30.00,6.67,15.16,21.71,12.50,18.00,23.19,8.71,36.67,3.00,12.35,27.11,0.00,48.33,4.14,0.00,0.00,0.00,0.00,13.54,0.00,0.00,1.03,17.96,0.00,0.00,1.37,14.52,0.00,0.00,2.11
0,60.34,30.00,6.67,15.07,21.71,12.50,18.00,23.19,8.73,36.67,3.00,12.36,26.65,0.00,45.00,4.08,0.00,0.00,0.00,0.00,13.41,0.00,0.00,1.04,18.38,0.00,0.00,1.45,14.46,0.00,0.00,2.11
0,63.09,32.86,10.00,16.12,21.71,12.50,18.00,23.19,8.71,36.67,3.00,12.35,27.56,0.00,48.33,4.31,0.00,0.00,0.00,0.00,13.60,0.00,0.00,1.05,19.20,0.00,0.00,1.53,14.06,0.00,0.00,1.96
0,64.13,31.43,10.00,17.11,21.60,12.50,17.50,23.19,8.71,36.67,3.00,12.35,27.34,0.00,48.33,4.34,0.00,0.00,0.00,0.00,13.36,0.00,0.00,1.05,18.86,0.00,0.00,1.47,14.08,0.00,0.00,2.02
0,64.44,31.43,10.00,17.51,20.44,11.50,16.00,22.75,8.70,36.67,3.00,12.35,26.43,0.00,48.33,4.04,0.00,0.00,0.00,0.00,12.98,0.00,0.00,1.01,18.64,0.00,0.00,1.47,13.62,0.00,0.00,1.97
0,60.75,27.14,10.00,15.89,19.14,10.50,14.50,21.58,8.70,36.67,3.00,12.35,26.03,0.00,45.00,3.87,0.00,0.00,0.00,0.00,12.62,0.00,0.00,0.94,18.73,0.00,0.00,1.46,13.30,0.00,0.00,1.95
0,59.86,27.14,10.00,15.66,17.00,9.00,13.00,19.32,8.70,36.67,3.00,12.35,26.19,0.00,45.00,3.87,0.00,0.00,0.00,0.00,12.61,0.00,0.00,0.93,18.39,0.00,0.00,1.45,12.78,0.00,0.00,1.88
0,63.31,31.43,13.33,17.41,15.60,8.00,11.50,17.73,8.70,36.67,3.00,12.35,25.52,0.00,43.33,3.76,0.00,0.00,0.00,0.00,12.78,0.00,0.00,0.97,18.16,0.00,0.00,1.44,12.80,0.00,0.00,1.93
0,62.81,30.00,13.33,16.96,15.24,8.00,10.50,17.20,6.89,26.67,2.00,9.52,26.39,0.00,48.33,3.97,0.00,0.00,0.00,0.00,12.09,0.00,0.00,0.81,17.92,0.00,0.00,1.42,12.71,0.00,0.00,1.90
0,60.92,27.14,13.33,16.27,12.91,7.00,8.50,14.79,4.82,20.00,1.00,5.74,26.86,0.00,51.67,4.05,0.00,0.00,0.00,0.00,12.00,0.00,0.00,0.80,18.12,0.00,0.00,1.46,12.59,0.00,0.00,1.94
0,60.23,27.14,13.33,16.32,11.65,6.00,7.00,12.72,3.69,13.33,1.00,4.44,26.73,0.00,50.00,3.90,0.00,0.00,0.00,0.00,12.36,0.00,0.00,0.83,18.40,0.00,0.00,1.56,12.85,0.00,0.00,2.07
0,60.63,27.14,13.33,16.44,13.15,6.50,9.00,15.06,3.61,13.33,1.00,4.42,26.89,0.00,51.67,3.92,0.00,0.00,0.00,0.00,12.86,0.00,0.00,0.86,19.03,0.00,0.00,1.63,12.65,0.00,0.00,2.07
0,60.45,27.14,13.33,17.49,14.07,7.50,9.50,16.19,3.60,13.33,1.00,4.42,26.73,0.00,51.67,3.84,0.00,0.00,0.00,0.00,13.08,0.00,0.00,0.89,18.31,0.00,0.00,1.52,12.64,0.00,0.00,2.11
0,60.80,25.71,13.33,17.42,11.66,6.00,8.00,12.98,4.99,20.00,2.00,6.67,26.05,0.00,50.00,3.73,0.00,0.00,0.00,0.00,12.82,0.00,0.00,0.86,17.99,0.00,0.00,1.49,12.68,0.00,0.00,2.11
0,59.35,24.29,13.33,16.69,9.92,5.00,6.00,10.32,4.71,20.00,1.50,6.98,25.98,0.00,48.33,3.78,0.00,0.00,0.00,0.00,12.84,0.00,0.00,0.84,18.32,0.00,0.00,1.56,12.36,0.00,0.00,2.04
0,57.59,24.29,13.33,16.22,7.83,4.00,5.00,7.75,3.07,13.33,1.00,3.44,25.60,0.00,46.67,3.75,0.00,0.00,0.00,0.00,12.66,0.00,0.00,0.87,18.28,0.00,0.00,1.53,12.71,0.00,0.00,2.11
0,56.19,24.29,13.33,16.08,9.05,4.50,5.50,8.54,3.03,13.33,1.00,3.43,26.21,0.00,48.33,3.86,0.00,0.00,0.00,0.00,12.68,0.00,0.00,0.90,18.56,0.00,0.00,1.62,12.71,0.00,0.00,2.14
0,55.30,22.86,13.33,15.43,11.13,6.00,7.00,10.70,3.05,13.33,1.00,3.43,25.38,0.00,46.67,3.60,0.00,0.00,0.00,0.00,12.96,0.00,0.00,0.91,18.62,0.00,0.00,1.63,12.34,0.00,0.00,2.10
0,56.97,24.29,13.33,15.75,12.55,7.00,9.00,12.79,3.40,16.67,1.00,3.54,25.07,0.00,46.67,3.41,0.00,0.00,0.00,0.00,12.98,0.00,0.00,0.91,18.27,0.00,0.00,1.59,12.16,0.00,0.00,1.98
0,56.39,24.29,13.33,15.60,12.90,7.50,9.00,12.95,5.22,23.33,2.00,6.29,25.18,0.00,48.33,3.43,0.00,0.00,0.00,0.00,12.41,0.00,0.00,0.81,18.29,0.00,0.00,1.58,12.06,0.00,0.00,1.92
0,54.29,21.43,10.00,15.18,12.89,7.50,9.00,12.95,7.32,30.00,3.00,10.01,25.13,0.00,48.33,3.56,0.00,0.00,0.00,0.00,12.59,0.00,0.00,0.81,17.91,0.00,0.00,1.54,11.95,0.00,0.00,1.85
0,51.09,18.57,10.00,13.59,12.88,7.50,9.00,12.95,7.38,30.00,3.00,10.02,24.60,0.00,48.33,3.50,0.00,0.00,0.00,0.00,12.38,0.00,0.00,0.79,17.25,0.00,0.00,1.48,11.76,0.00,0.00,1.87
0,50.60,17.14,10.00,13.51,12.88,7.50,9.00,12.95,7.36,30.00,3.00,10.02,24.53,0.00,46.67,3.43,0.00,0.00,0.00,0.00,11.92,0.00,0.00,0.72,16.85,0.00,0.00,1.44,11.55,0.00,0.00,1.84
0,50.28,15.71,6.67,13.58,12.87,7.50,9.00,12.95,7.36,30.00,3.00,10.02,23.60,0.00,43.33,3.14,0.00,0.00,0.00,0.00,11.81,0.00,0.00,0.70,15.91,0.00,0.00,1.31,11.69,0.00,0.00,1.84
0,46.25,12.86,3.33,11.25,12.85,7.50,9.00,12.95,7.36,30.00,3.00,10.02,23.48,0.00,41.67,3.03,0.00,0.00,0.00,0.00,11.90,0.00,0.00,0.73,15.85,0.00,0.00,1.31,11.61,0.00,0.00,1.82
0,45.20,12.86,3.33,10.57,12.85,7.50,9.00,12.95,7.36,30.00,3.00,10.02,24.31,0.00,45.00,3.13,0.00,0.00,0.00,0.00,11.88,0.00,0.00,0.74,15.40,0.00,0.00,1.24,11.27,0.00,0.00,1.72
0,44.49,11.43,3.33,10.28,12.87,7.50,9.00,12.95,7.36,30.00,3.00,10.02,24.59,0.00,46.67,3.22,0.00,0.00,0.00,0.00,11.80,0.00,0.00,0.72,15.61,0.00,0.00,1.30,11.37,0.00,0.00,1.72
0,44.11,11.43,3.33,10.16,12.87,7.50,9.00,12.95,7.36,30.00,3.00,10.02,24.11,0.00,46.67,3.15,0.00,0.00,0.00,0.00,11.81,0.00,0.00,0.71,15.64,0.00,0.00,1.33,11.60,0.00,0.00,1.77
0,40.87,7.14,0.00,8.30,12.68,7.50,9.00,12.92,7.35,30.00,3.00,10.02,24.77,0.00,46.67,3.22,0.00,0.00,0.00,0.00,11.52,0.00,0.00,0.65,16.13,0.00,0.00,1.44,11.70,0.00,0.00,1.76
0,40.71,5.71,0.00,8.19,11.81,6.50,8.00,12.52,7.37,30.00,3.00,10.02,23.95,0.00,40.00,3.09,0.00,0.00,0.00,0.00,11.74,0.00,0.00,0.66,16.11,0.00,0.00,1.42,11.70,0.00,0.00,1.73
0,40.42,5.71,0.00,7.86,11.69,6.50,8.00,12.47,7.37,30.00,3.00,10.02,23.04,0.00,35.00,2.95,0.00,0.00,0.00,0.00,12.01,0.00,0.00,0.66,16.14,0.00,0.00,1.41,11.71,0.00,0.00,1.66
0,40.71,7.14,0.00,8.00,11.69,6.50,8.00,12.47,7.37,30.00,3.00,10.02,23.11,0.00,36.67,2.94,0.00,0.00,0.00,0.00,11.88,0.00,0.00,0.66,15.68,0.00,0.00,1.34,11.81,0.00,0.00,1.61
0,41.28,7.14,0.00,8.42,9.31,5.50,6.00,10.17,7.37,30.00,3.00,10.02,22.32,0.00,33.33,2.83,0.00,0.00,0.00,0.00,11.64,0.00,0.00,0.66,14.97,0.00,0.00,1.20,11.74,0.00,0.00,1.53
0,40.89,5.71,0.00,7.43,6.52,4.00,4.00,6.95,7.37,30.00,3.00,10.02,22.36,0.00,31.67,2.89,0.00,0.00,0.00,0.00,11.72,0.00,0.00,0.69,15.44,0.00,0.00,1.34,11.65,0.00,0.00,1.48
0,40.24,5.71,0.00,7.23,6.43,4.00,5.00,5.66,6.99,26.67,2.50,10.02,22.74,0.00,31.67,3.03,0.00,0.00,0.00,0.00,12.46,0.00,0.00,0.78,15.72,0.00,0.00,1.39,11.58,0.00,0.00,1.49
0,40.68,5.71,0.00,7.53,8.25,5.50,6.50,7.37,5.12,16.67,2.00,6.96,22.66,0.00,30.00,2.97,0.00,0.00,0.00,0.00,12.97,0.00,0.00,0.85,15.53,0.00,0.00,1.34,11.78,0.00,0.00,1.54
0,41.49,5.71,0.00,7.62,10.28,6.50,8.00,9.77,4.80,16.67,2.00,6.61,22.75,0.00,31.67,2.94,0.00,0.00,0.00,0.00,12.72,0.00,0.00,0.83,15.55,0.00,0.00,1.33,11.32,0.00,0.00,1.46
0,42.17,5.71,0.00,7.81,12.37,7.50,9.50,12.33,4.79,16.67,2.00,6.61,23.21,0.00,33.33,2.97,0.00,0.00,0.00,0.00,12.54,0.00,0.00,0.76,15.16,0.00,0.00,1.25,11.20,0.00,0.00,1.37
0,41.38,5.71,0.00,7.77,10.83,6.50,8.00,10.08,4.77,16.67,2.00,6.61,23.60,0.00,35.00,3.05,0.00,0.00,0.00,0.00,12.54,0.00,0.00,0.77,15.55,0.00,0.00,1.32,11.17,0.00,0.00,1.32
0,41.00,5.71,0.00,7.56,10.39,6.00,7.00,10.08,4.50,13.33,2.00,6.51,24.34,0.00,38.33,3.21,0.00,0.00,0.00,0.00,12.47,0.00,0.00,0.76,15.97,0.00,0.00,1.36,11.36,0.00,0.00,1.35
0,39.41,4.29,0.00,7.32,9.54,5.00,6.50,9.48,5.10,16.67,2.00,7.44,24.31,0.00,38.33,3.29,0.00,0.00,0.00,0.00,12.32,0.00,0.00,0.76,16.08,0.00,0.00,1.41,11.40,0.00,0.00,1.39
0,40.03,4.29,0.00,7.61,9.54,5.00,6.50,9.48,4.80,16.67,2.00,7.16,24.58,0.00,36.67,3.42,0.00,0.00,0.00,0.00,12.34,0.00,0.00,0.75,16.13,0.00,0.00,1.43,11.25,0.00,0.00,1.38
0,40.92,4.29,0.00,7.72,11.48,6.00,7.50,11.62,4.65,16.67,2.00,6.94,24.50,0.00,35.00,3.41,0.00,0.00,0.00,0.00,12.41,0.00,0.00,0.76,16.37,0.00,0.00,1.46,11.36,0.00,0.00,1.34
0,41.69,5.71,0.00,8.10,11.72,6.00,7.50,11.79,4.65,16.67,2.00,6.94,24.45,0.00,35.00,3.34,0.00,0.00,0.00,0.00,12.96,0.00,0.00,0.80,16.48,0.00,0.00,1.46,11.61,0.00,0.00,1.34
0,41.85,5.71,0.00,8.18,13.68,7.00,8.50,13.90,4.65,16.67,2.00,6.94,24.42,0.00,33.33,3.33,0.00,0.00,0.00,0.00,13.53,0.00,0.00,0.86,17.17,0.00,0.00,1.53,11.63,0.00,0.00,1.35
0,42.94,7.14,0.00,8.69,14.73,8.00,10.00,14.59,5.57,20.00,2.50,7.93,25.03,0.00,35.00,3.58,0.00,0.00,0.00,0.00,13.44,0.00,0.00,0.83,17.60,0.00,0.00,1.67,11.69,0.00,0.00,1.31
0,43.58,8.57,0.00,8.91,14.77,8.00,10.00,14.60,7.77,30.00,3.50,11.53,24.53,0.00,33.33,3.56,0.00,0.00,0.00,0.00,13.22,0.00,0.00,0.80,17.86,0.00,0.00,1.75,11.81,0.00,0.00,1.33
0,44.46,8.57,0.00,9.29,14.74,8.00,10.00,14.60,8.06,30.00,3.50,11.88,24.31,0.00,33.33,3.51,0.00,0.00,0.00,0.00,13.58,0.00,0.00,0.83,17.91,0.00,0.00,1.69,12.05,0.00,0.00,1.37
0,45.05,8.57,0.00,9.43,14.74,8.00,10.00,14.60,8.07,30.00,3.50,11.88,24.77,0.00,33.33,3.62,0.00,0.00,0.00,0.00,13.44,0.00,0.00,0.82,18.23,0.00,0.00,1.71,11.94,0.00,0.00,1.32
0,45.13,8.57,0.00,9.45,14.73,8.00,10.00,14.60,8.07,30.00,3.50,11.88,25.05,0.00,33.33,3.54,0.00,0.00,0.00,0.00,13.59,0.00,0.00,0.83,17.77,0.00,0.00,1.63,11.65,0.00,0.00,1.22
0,44.67,8.57,0.00,9.52,14.75,8.00,10.00,14.60,8.06,30.00,3.50,11.88,25.48,0.00,36.67,3.64,0.00,0.00,0.00,0.00,13.23,0.00,0.00,0.81,18.12,0.00,0.00,1.74,11.61,0.00,0.00,1.20
0,43.80,8.57,0.00,9.35,14.74,8.00,10.00,14.60,8.05,30.00,3.50,11.88,25.79,0.00,36.67,3.81,0.00,0.00,0.00,0.00,12.70,0.00,0.00,0.78,18.56,0.00,0.00,1.88,11.48,0.00,0.00,1.18
0,43.46,8.57,0.00,9.77,14.74,8.00,10.00,14.60,8.05,30.00,3.50,11.88,25.70,0.00,36.67,3.81,0.00,0.00,0.00,0.00,12.31,0.00,0.00,0.74,19.12,0.00,0.00,1.95,11.06,0.00,0.00,1.15
0,43.99,8.57,0.00,10.17,14.74,8.00,10.00,14.60,8.06,30.00,3.50,11.88,26.07,0.00,36.67,3.98,0.00,0.00,0.00,0.00,11.94,0.00,0.00,0.70,19.50,0.00,0.00,2.02,11.15,0.00,0.00,1.15
0,42.85,7.14,0.00,9.72,14.74,8.00,10.00,14.60,8.07,30.00,3.50,11.88,26.92,0.00,41.67,4.08,0.00,0.00,0.00,0.00,11.77,0.00,0.00,0.66,19.44,0.00,0.00,1.94,11.07,0.00,0.00,1.16
0,43.16,7.14,0.00,9.88,14.34,8.00,9.50,14.57,8.08,30.00,3.50,11.88,26.49,0.00,38.33,3.89,0.00,0.00,0.00,0.00,11.21,0.00,0.00,0.58,19.16,0.00,0.00,1.88,11.02,0.00,0.00,1.13
0,44.66,8.57,0.00,10.68,12.47,6.50,7.50,13.45,8.08,30.00,3.50,11.88,26.68,0.00,41.67,3.94,0.00,0.00,0.00,0.00,10.61,0.00,0.00,0.50,19.42,0.00,0.00,1.92,10.65,0.00,0.00,1.12
0,44.37,8.57,0.00,10.77,10.41,5.50,6.00,10.47,8.10,30.00,3.50,11.89,26.76,0.00,41.67,4.02,0.00,0.00,0.00,0.00,10.88,0.00,0.00,0.51,20.38,0.00,2.22,2.16,10.59,0.00,0.00,1.04
0,44.67,8.57,0.00,11.07,8.01,4.00,4.50,7.67,8.12,30.00,3.50,11.89,26.06,0.00,38.33,3.99,0.00,0.00,0.00,0.00,10.54,0.00,0.00,0.49,20.18,0.00,2.22,2.16,10.34,0.00,0.00,1.01
0,46.19,8.57,0.00,11.91,7.85,4.00,4.50,7.45,8.12,30.00,3.50,11.89,26.58,0.00,41.67,4.25,0.00,0.00,0.00,0.00,10.52,0.00,0.00,0.49,19.44,0.00,2.22,2.07,10.41,0.00,0.00,1.03
0,45.91,8.57,0.00,12.17,6.26,3.50,4.00,5.28,8.12,30.00,3.50,11.89,26.33,0.00,41.67,4.25,0.00,0.00,0.00,0.00,10.42,0.00,0.00,0.48,19.32,0.00,2.22,2.03,10.01,0.00,0.00,0.97
0,46.73,8.57,0.00,12.50,8.50,4.50,5.50,7.58,6.19,20.00,2.50,8.67,25.55,0.00,38.33,4.07,0.00,0.00,0.00,0.00,10.70,0.00,0.00,0.50,19.17,0.00,2.22,2.00,10.27,0.00,0.00,1.01
0,46.66,10.00,0.00,12.65,11.24,6.00,7.50,10.63,4.14,13.33,1.50,5.04,26.09,0.00,40.00,4.23,0.00,0.00,0.00,0.00,10.84,0.00,0.00,0.51,19.10,0.00,2.22,1.98,9.91,0.00,0.00,0.94
0,46.42,10.00,0.00,12.51,10.52,6.00,7.00,10.23,3.92,13.33,1.50,4.96,26.13,0.00,41.67,4.17,0.00,0.00,0.00,0.00,10.71,0.00,0.00,0.52,19.40,0.00,2.22,2.08,9.62,0.00,0.00,0.89
0,45.63,8.57,0.00,12.22,9.89,5.50,7.00,9.66,3.91,13.33,1.50,4.96,26.01,0.00,40.00,4.27,0.00,0.00,0.00,0.00,10.67,0.00,0.00,0.54,19.08,0.00,2.22,2.05,9.58,0.00,0.00,0.92
0,46.14,8.57,0.00,12.51,8.06,4.50,6.00,7.74,3.91,13.33,1.50,4.96,26.86,0.00,43.33,4.59,0.00,0.00,0.00,0.00,10.13,0.00,0.00,0.48,18.68,0.00,2.22,1.99,9.39,0.00,0.00,0.89
0,44.96,7.14,0.00,11.90,6.97,3.50,4.50,6.90,5.54,20.00,2.00,8.06,26.54,0.00,43.33,4.50,0.00,0.00,0.00,0.00,10.68,0.00,0.00,0.55,18.97,0.00,4.44,1.97,9.32,0.00,0.00,0.88
0,44.63,7.14,0.00,11.69,6.84,3.50,4.50,6.85,4.03,13.33,1.00,6.34,26.15,0.00,41.67,4.35,0.00,0.00,0.00,0.00,10.91,0.00,0.00,0.59,18.88,0.00,4.44,1.93,9.39,0.00,0.00,0.88
0,44.07,5.71,0.00,11.50,6.84,3.50,4.50,6.85,3.25,10.00,1.00,3.94,26.39,0.00,40.00,4.46,0.00,0.00,0.00,0.00,10.97,0.00,0.00,0.60,19.28,0.00,4.44,2.00,9.17,0.00,0.00,0.86
0,44.00,5.71,0.00,11.15,6.85,3.50,4.50,6.85,3.22,10.00,1.00,3.93,26.10,0.00,41.67,4.41,0.00,0.00,0.00,0.00,11.09,0.00,0.00,0.60,19.30,0.00,4.44,2.06,9.01,0.00,0.00,0.82
0,43.36,5.71,0.00,11.27,6.85,3.50,4.50,6.85,3.22,10.00,1.00,3.93,26.11,0.00,41.67,4.45,0.00,0.00,0.00,0.00,10.94,0.00,0.00,0.61,19.55,0.00,4.44,2.08,9.01,0.00,0.00,0.87
0,43.48,5.71,0.00,11.16,8.73,4.50,5.50,8.92,3.22,10.00,1.00,3.93,26.20,0.00,43.33,4.61,0.00,0.00,0.00,0.00,11.04,0.00,0.00,0.61,19.15,0.00,4.44,1.95,8.94,0.00,0.00,0.86
0,42.23,5.71,0.00,10.85,10.05,5.50,7.00,10.07,5.09,16.67,1.50,5.86,26.10,0.00,45.00,4.55,0.00,0.00,0.00,0.00,11.09,0.00,0.00,0.61,18.68,0.00,4.44,1.84,8.94,0.00,0.00,0.88
0,42.11,4.29,0.00,10.64,10.19,5.50,7.00,10.15,7.98,26.67,3.00,10.53,26.79,0.00,46.67,4.67,0.00,0.00,0.00,0.00,11.35,0.00,0.00,0.63,18.60,0.00,4.44,1.77,9.04,0.00,0.00,0.91
0,41.42,4.29,0.00,10.08,10.19,5.50,7.00,10.15,8.83,30.00,3.50,13.10,26.55,0.00,45.00,4.53,0.00,0.00,0.00,0.00,11.62,0.00,0.00,0.67,18.46,0.00,4.44,1.77,9.16,0.00,0.00,0.96
0,41.01,4.29,0.00,9.72,10.19,5.50,7.00,10.15,8.86,30.00,3.50,13.11,25.98,0.00,40.00,4.56,0.00,0.00,0.00,0.00,11.80,0.00,0.00,0.69,18.25,0.00,4.44,1.80,8.99,0.00,0.00,0.93
0,41.52,5.71,0.00,9.50,10.19,5.50,7.00,10.15,8.86,30.00,3.50,13.11,26.13,0.00,40.00,4.71,0.00,0.00,0.00,0.00,11.99,0.00,0.00,0.72,18.66,0.00,4.44,1.86,9.32,0.00,0.00,0.97
0,40.38,4.29,0.00,9.20,10.19,5.50,7.00,10.15,8.86,30.00,3.50,13.11,26.36,0.00,38.33,4.90,0.00,0.00,0.00,0.00,12.31,0.00,0.00,0.79,18.62,0.00,4.44,1.89,9.66,0.00,0.00,1.03
0,41.45,4.29,0.00,9.39,10.19,5.50,7.00,10.15,8.84,30.00,3.50,13.10,25.95,0.00,36.67,4.79,0.00,0.00,0.00,0.00,12.45,0.00,0.00,0.80,18.16,0.00,2.22,1.75,10.12,0.00,0.00,1.13
0,41.40,5.71,0.00,9.64,10.19,5.50,7.00,10.15,8.82,30.00,3.50,13.10,26.54,0.00,40.00,4.87,0.00,0.00,0.00,0.00,12.54,0.00,0.00,0.79,18.09,0.00,2.22,1.71,10.80,0.00,0.00,1.27
0,41.28,5.71,0.00,9.45,10.09,5.50,7.00,10.14,8.82,30.00,3.50,13.10,26.14,0.00,38.33,4.75,0.00,0.00,0.00,0.00,12.82,0.00,0.00,0.83,18.53,0.00,2.22,1.82,10.92,0.00,0.00,1.28
0,41.98,5.71,0.00,9.24,9.65,5.00,6.50,10.03,8.82,30.00,3.50,13.10,25.89,0.00,36.67,4.66,0.00,0.00,0.00,0.00,13.12,0.00,0.00,0.90,18.82,0.00,2.22,1.96,10.88,0.00,0.00,1.29
0,42.09,5.71,0.00,9.28,7.69,4.00,5.50,7.85,8.81,30.00,3.50,13.10,27.00,0.00,40.00,4.95,0.00,0.00,0.00,0.00,13.56,0.00,0.00,0.97,19.60,0.00,2.22,2.08,11.18,0.00,0.00,1.31
0,41.56,4.29,0.00,9.12,5.57,3.00,3.50,5.24,8.81,30.00,3.50,13.10,26.30,0.00,38.33,4.77,0.00,0.00,0.00,0.00,13.80,0.00,0.00,1.01,19.93,0.00,4.44,2.17,11.57,0.00,0.00,1.39
0,42.51,4.29,0.00,9.36,3.74,2.00,2.50,3.30,8.82,30.00,3.50,13.10,26.08,0.00,36.67,4.67,0.00,0.00,0.00,0.00,14.00,0.00,0.00,1.02,19.98,0.00,4.44,2.10,11.96,0.00,0.00,1.53
0,42.73,4.29,0.00,9.77,3.69,2.00,2.50,3.30,8.82,30.00,3.50,13.10,26.01,0.00,38.33,4.59,0.00,0.00,0.00,0.00,13.44,0.00,0.00,0.97,19.98,0.00,4.44,2.09,11.91,0.00,0.00,1.54
0,43.36,4.29,0.00,9.69,3.95,2.50,3.00,3.35,8.82,30.00,3.50,13.10,25.64,0.00,36.67,4.36,0.00,0.00,0.00,0.00,13.70,0.00,0.00,0.99,20.15,0.00,4.44,2.10,12.14,0.00,0.00,1.59
0,43.11,4.29,0.00,9.68,5.93,3.50,4.00,5.47,7.53,26.67,2.50,11.92,25.32,0.00,35.00,4.28,0.00,0.00,0.00,0.00,12.86,0.00,0.00,0.92,19.56,0.00,2.22,2.06,12.02,0.00,0.00,1.60
0,44.14,5.71,0.00,10.11,6.21,3.50,4.00,5.71,6.35,20.00,2.50,9.31,25.95,0.00,35.00,4.54,0.00,0.00,0.00,0.00,12.62,0.00,0.00,0.88,19.36,0.00,2.22,2.03,12.12,0.00,0.00,1.64
0,44.07,7.14,0.00,10.04,6.23,3.50,4.00,5.71,6.11,20.00,2.50,9.19,26.14,0.00,38.33,4.52,0.00,0.00,0.00,0.00,12.74,0.00,0.00,0.88,18.83,0.00,2.22,1.93,12.18,0.00,0.00,1.68
0,43.81,8.57,0.00,9.93,6.23,3.50,4.00,5.71,6.10,20.00,2.50,9.19,27.09,0.00,40.00,4.68,0.00,0.00,0.00,0.00,12.38,0.00,0.00,0.86,19.62,0.00,2.22,2.03,12.28,0.00,0.00,1.71
0,43.01,8.57,0.00,9.68,6.24,3.50,4.00,5.71,6.09,20.00,2.50,9.19,27.35,0.00,41.67,4.78,0.00,0.00,0.00,0.00,12.38,0.00,0.00,0.85,19.65,0.00,2.22,2.05,12.42,0.00,0.00,1.73
0,44.36,10.00,0.00,10.27,4.94,3.00,3.00,4.92,6.09,20.00,2.50,9.19,26.50,0.00,36.67,4.55,0.00,0.00,0.00,0.00,12.43,0.00,0.00,0.86,19.14,0.00,2.22,1.99,12.60,0.00,0.00,1.72
0,46.38,11.43,0.00,10.71,3.34,2.00,1.50,2.68,5.81,16.67,2.50,8.30,26.34,0.00,35.00,4.50,0.00,0.00,0.00,0.00,12.49,0.00,0.00,0.87,19.60,0.00,2.22,2.08,12.52,0.00,0.00,1.75
0,46.02,11.43,0.00,10.67,2.91,1.50,1.50,2.42,5.25,16.67,2.00,7.50,26.20,0.00,33.33,4.55,0.00,0.00,0.00,0.00,12.79,0.00,0.00,0.87,19.71,0.00,2.22,2.08,12.40,0.00,0.00,1.70
0,46.09,11.43,0.00,10.85,2.90,1.50,1.50,2.42,3.58,13.33,1.00,4.10,26.94,0.00,36.67,4.67,0.00,0.00,0.00,0.00,12.25,0.00,0.00,0.82,19.55,0.00,2.22,2.03,12.47,0.00,0.00,1.67
0,47.92,14.29,0.00,12.44,2.90,1.50,1.50,2.42,3.53,13.33,1.00,4.09,26.70,0.00,40.00,4.53,0.00,0.00,0.00,0.00,12.48,0.00,0.00,0.83,19.80,0.00,2.22,2.01,12.79,0.00,0.00,1.72
0,47.76,12.86,0.00,12.46,2.90,1.50,1.50,2.42,3.52,13.33,1.00,4.09,26.69,0.00,41.67,4.45,0.00,0.00,0.00,0.00,12.49,0.00,0.00,0.85,19.64,0.00,2.22,1.94,12.98,0.00,0.00,1.78
0,49.99,14.29,0.00,13.40,4.16,2.00,2.00,3.17,4.12,16.67,1.00,4.41,26.29,0.00,41.67,4.28,0.00,0.00,0.00,0.00,12.06,0.00,0.00,0.78,19.34,0.00,2.22,1.88,12.83,0.00,0.00,1.79
0,48.76,14.29,0.00,12.89,4.98,2.50,2.50,4.60,6.05,23.33,2.00,7.61,26.27,0.00,40.00,4.25,0.00,0.00,0.00,0.00,11.73,0.00,0.00,0.75,19.14,0.00,2.22,1.86,12.89,0.00,0.00,1.79
0,48.78,14.29,0.00,12.51,5.01,2.50,2.50,4.60,8.17,30.00,3.00,11.52,26.44,0.00,40.00,4.43,0.00,0.00,0.00,0.00,11.54,0.00,0.00,0.75,18.90,0.00,2.22,1.84,12.46,0.00,0.00,1.67
0,48.92,14.29,0.00,12.42,5.01,2.50,2.50,4.60,8.31,30.00,3.00,11.57,26.18,0.00,38.33,4.39,0.00,0.00,0.00,0.00,11.30,0.00,0.00,0.71,19.17,0.00,2.22,1.83,12.39,0.00,0.00,1.65
0,48.11,14.29,0.00,11.96,5.01,2.50,2.50,4.60,8.34,30.00,3.00,11.58,26.21,0.00,38.33,4.34,0.00,0.00,0.00,0.00,11.11,0.00,0.00,0.68,19.48,0.00,2.22,1.77,12.68,0.00,0.00,1.74
0,49.53,15.71,0.00,11.95,5.00,2.50,2.50,4.60,8.34,30.00,3.00,11.58,25.95,0.00,36.67,4.19,0.00,0.00,0.00,0.00,10.99,0.00,0.00,0.64,19.70,0.00,2.22,1.75,12.81,0.00,0.00,1.84
0,49.83,15.71,0.00,12.55,5.00,2.50,2.50,4.60,8.34,30.00,3.00,11.58,25.41,0.00,36.67,4.00,0.00,0.00,0.00,0.00,11.06,0.00,0.00,0.64,19.47,0.00,0.00,1.67,12.93,0.00,0.00,1.86
0,49.61,15.71,0.00,12.37,5.00,2.50,2.50,4.60,8.34,30.00,3.00,11.58,25.81,0.00,38.33,4.07,0.00,0.00,0.00,0.00,10.91,0.00,0.00,0.63,19.59,0.00,0.00,1.68,12.50,0.00,0.00,1.79
0,49.33,17.14,0.00,12.08,5.01,2.50,2.50,4.60,8.36,30.00,3.00,11.58,25.83,0.00,38.33,4.19,0.00,0.00,0.00,0.00,11.34,0.00,0.00,0.68,19.46,0.00,0.00,1.65,12.40,0.00,0.00,1.67
0,48.71,17.14,0.00,12.03,4.94,2.50,2.00,4.60,8.36,30.00,3.00,11.58,25.90,0.00,36.67,4.32,0.00,0.00,0.00,0.00,11.37,0.00,0.00,0.68,19.38,0.00,0.00,1.63,12.50,0.00,0.00,1.68
0,47.90,17.14,0.00,11.63,3.36,1.50,1.00,3.73,8.36,30.00,3.00,11.58,26.64,0.00,43.33,4.40,0.00,0.00,0.00,0.00,11.30,0.00,0.00,0.67,19.35,0.00,0.00,1.68,12.80,0.00,0.00,1.73
0,48.37,15.71,0.00,11.58,2.53,1.00,1.00,2.19,8.36,30.00,3.00,11.58,26.54,0.00,45.00,4.21,0.00,0.00,0.00,0.00,11.53,0.00,0.00,0.69,19.56,0.00,0.00,1.64,12.56,0.00,0.00,1.69
0,47.52,14.29,0.00,11.34,2.48,1.00,1.00,2.19,8.36,30.00,3.00,11.58,25.97,0.00,40.00,4.14,0.00,0.00,0.00,0.00,11.78,0.00,0.00,0.74,20.21,0.00,0.00,1.74,13.01,0.00,0.00,1.78
0,47.57,12.86,0.00,11.28,2.50,1.00,1.00,2.19,8.37,30.00,3.00,11.58,25.51,0.00,40.00,4.06,0.00,0.00,0.00,0.00,12.05,0.00,0.00,0.74,19.50,0.00,0.00,1.61,12.93,0.00,0.00,1.75
0,48.39,14.29,0.00,11.85,2.76,1.00,1.00,2.23,8.37,30.00,3.00,11.58,25.51,0.00,40.00,4.01,0.00,0.00,0.00,0.00,12.14,0.00,0.00,0.74,19.25,0.00,0.00,1.61,12.71,0.00,0.00,1.70
0,48.03,14.29,0.00,11.93,5.07,2.00,2.50,4.42,8.38,30.00,3.00,11.58,25.39,0.00,40.00,4.01,0.00,0.00,0.00,0.00,12.02,0.00,0.00,0.74,19.28,0.00,0.00,1.62,12.88,0.00,0.00,1.76
0,45.84,11.43,0.00,10.97,7.99,3.50,4.50,7.65,8.37,30.00,3.00,11.58,25.68,0.00,41.67,4.04,0.00,0.00,0.00,0.00,11.92,0.00,0.00,0.73,18.89,0.00,0.00,1.55,12.89,0.00,0.00,1.80
0,46.76,12.86,0.00,11.07,10.20,4.50,6.50,11.23,6.40,23.33,2.00,8.88,24.96,0.00,40.00,3.80,0.00,0.00,0.00,0.00,12.00,0.00,0.00,0.74,18.99,0.00,0.00,1.56,13.14,0.00,0.00,1.85
0,47.10,12.86,0.00,11.26,10.90,5.00,6.50,11.87,5.32,16.67,2.00,7.51,24.87,0.00,40.00,3.67,0.00,0.00,0.00,0.00,12.31,0.00,0.00,0.77,18.31,0.00,0.00,1.55,13.18,0.00,0.00,1.87
0,46.12,11.43,0.00,10.34,10.92,5.00,6.50,11.87,5.31,16.67,2.00,7.50,25.49,0.00,38.33,4.00,0.00,0.00,0.00,0.00,12.30,0.00,0.00,0.78,18.72,0.00,0.00,1.60,12.97,0.00,0.00,1.85
0,45.56,10.00,0.00,9.87,10.94,5.00,6.50,11.87,5.31,16.67,2.00,7.50,26.30,0.00,41.67,4.30,0.00,0.00,0.00,0.00,12.43,0.00,0.00,0.78,19.18,0.00,2.22,1.77,12.86,0.00,0.00,1.80
0,43.07,8.57,0.00,8.62,10.95,5.00,6.50,11.87,4.95,13.33,2.00,7.38,26.18,0.00,41.67,4.23,0.00,0.00,0.00,0.00,12.30,0.00,0.00,0.74,19.34,0.00,2.22,1.79,12.71,0.00,0.00,1.80
0,45.37,8.57,0.00,9.32,8.89,4.00,5.50,9.70,5.14,16.67,2.00,7.43,26.72,0.00,43.33,4.27,0.00,0.00,0.00,0.00,12.18,0.00,0.00,0.73,19.37,0.00,2.22,1.79,12.98,0.00,0.00,1.88
0,44.95,8.57,0.00,9.32,8.84,4.00,5.50,9.69,3.89,13.33,1.00,4.43,25.62,0.00,40.00,3.92,0.00,0.00,0.00,0.00,12.70,0.00,0.00,0.76,19.35,0.00,2.22,1.77,12.79,0.00,0.00,1.84
0,44.08,8.57,0.00,8.99,8.85,4.00,5.50,9.69,3.63,13.33,1.00,4.07,25.52,0.00,41.67,3.77,0.00,0.00,0.00,0.00,12.95,0.00,0.00,0.78,18.81,0.00,2.22,1.69,12.99,0.00,0.00,1.91
0,44.37,8.57,0.00,9.08,8.85,4.00,5.50,9.69,3.59,13.33,1.00,4.07,26.12,0.00,43.33,3.88,0.00,0.00,0.00,0.00,12.65,0.00,0.00,0.76,18.35,0.00,2.22,1.62,12.70,0.00,0.00,1.84
0,42.67,8.57,0.00,8.83,8.85,4.00,5.50,9.69,3.62,13.33,1.00,4.07,25.86,0.00,41.67,3.82,0.00,0.00,0.00,0.00,12.64,0.00,0.00,0.73,18.31,0.00,2.22,1.67,12.46,0.00,0.00,1.71
0,41.90,7.14,0.00,8.30,10.17,5.00,6.50,10.66,4.71,16.67,1.50,4.80,26.51,0.00,43.33,3.95,0.00,0.00,0.00,0.00,12.25,0.00,0.00,0.69,18.14,0.00,2.22,1.67,12.21,0.00,0.00,1.68
0,42.14,7.14,0.00,8.50,10.34,5.00,6.50,10.69,6.73,23.33,2.50,8.88,26.30,0.00,43.33,3.92,0.00,0.00,0.00,0.00,11.83,0.00,0.00,0.64,17.64,0.00,2.22,1.62,12.22,0.00,0.00,1.68
0,40.36,5.71,0.00,8.02,10.33,5.00,6.50,10.69,7.39,26.67,2.50,9.80,26.50,0.00,45.00,3.86,0.00,0.00,0.00,0.00,11.40,0.00,0.00,0.59,17.61,0.00,2.22,1.65,12.14,0.00,0.00,1.68
0,39.38,5.71,0.00,7.72,10.34,5.00,6.50,10.69,7.41,26.67,2.50,9.80,26.04,0.00,45.00,3.74,0.00,0.00,0.00,0.00,11.33,0.00,0.00,0.58,17.60,0.00,2.22,1.66,12.03,0.00,0.00,1.68
0,39.82,7.14,0.00,7.87,10.35,5.00,6.50,10.69,7.40,26.67,2.50,9.80,25.53,0.00,40.00,3.65,0.00,0.00,0.00,0.00,11.25,0.00,0.00,0.57,17.47,0.00,2.22,1.62,11.83,0.00,0.00,1.65
0,38.95,7.14,0.00,8.08,10.35,5.00,6.50,10.69,7.40,26.67,2.50,9.80,25.40,0.00,40.00,3.61,0.00,0.00,0.00,0.00,11.21,0.00,0.00,0.56,17.82,0.00,2.22,1.66,11.44,0.00,0.00,1.55
0,39.48,7.14,0.00,7.97,10.35,5.00,6.50,10.69,7.39,26.67,2.50,9.80,25.92,0.00,43.33,3.70,0.00,0.00,0.00,0.00,10.78,0.00,0.00,0.51,17.22,0.00,2.22,1.59,11.38,0.00,0.00,1.54
0,39.25,7.14,0.00,7.78,10.34,5.00,6.50,10.69,7.39,26.67,2.50,9.80,25.51,0.00,40.00,3.63,0.00,0.00,0.00,0.00,10.72,0.00,0.00,0.50,17.21,0.00,2.22,1.61,11.28,0.00,0.00,1.53
0,38.22,5.71,0.00,7.18,10.10,5.00,6.50,10.65,7.39,26.67,2.50,9.80,25.32,0.00,40.00,3.51,0.00,0.00,0.00,0.00,10.49,0.00,0.00,0.50,17.20,0.00,2.22,1.58,11.19,0.00,0.00,1.53
0,38.74,5.71,0.00,7.18,8.21,4.00,5.50,8.61,7.39,26.67,2.50,9.80,25.32,0.00,41.67,3.50,0.00,0.00,0.00,0.00,10.44,0.00,0.00,0.49,17.15,0.00,2.22,1.55,11.36,0.00,0.00,1.52
0,39.26,5.71,0.00,7.48,6.10,3.00,3.50,6.02,7.38,26.67,2.50,9.80,25.47,0.00,43.33,3.61,0.00,0.00,0.00,0.00,10.49,0.00,0.00,0.49,18.15,0.00,2.22,1.68,11.06,0.00,0.00,1.44
0,38.16,4.29,0.00,7.23,3.74,2.00,1.50,3.49,7.37,26.67,2.50,9.79,25.26,0.00,45.00,3.54,0.00,0.00,0.00,0.00,10.60,0.00,0.00,0.48,18.22,0.00,2.22,1.66,11.15,0.00,0.00,1.41
0,37.57,2.86,0.00,6.62,1.96,1.00,1.00,1.01,7.36,26.67,2.50,9.79,25.90,0.00,46.67,3.68,0.00,0.00,0.00,0.00,10.53,0.00,0.00,0.48,18.93,0.00,2.22,1.73,10.95,0.00,0.00,1.40
0,37.82,2.86,0.00,6.65,2.19,1.50,1.50,1.06,7.35,26.67,2.50,9.79,25.07,0.00,45.00,3.34,0.00,0.00,0.00,0.00,10.48,0.00,0.00,0.46,18.47,0.00,2.22,1.62,10.97,0.00,0.00,1.42
0,38.17,2.86,0.00,7.06,3.05,2.50,2.50,1.47,7.35,26.67,2.50,9.79,24.25,0.00,40.00,3.06,0.00,0.00,0.00,0.00,10.32,0.00,0.00,0.43,18.07,0.00,0.00,1.50,11.13,0.00,0.00,1.46
0,41.03,7.14,0.00,8.33,5.04,3.50,4.00,3.72,7.31,26.67,2.50,9.79,24.22,0.00,38.33,3.16,0.00,0.00,0.00,0.00,10.60,0.00,0.00,0.46,17.84,0.00,0.00,1.46,10.97,0.00,0.00,1.34
1,42.89,11.43,3.33,9.74,5.28,3.50,4.00,3.89,5.58,20.00,1.50,7.22,24.34,0.00,41.67,3.17,0.00,0.00,0.00,0.00,11.14,0.00,0.00,0.53,17.99,0.00,2.22,1.46,10.66,0.00,0.00,1.26
1,45.56,15.71,3.33,10.47,5.28,3.50,4.00,3.89,4.39,13.33,1.50,5.83,24.67,0.00,43.33,3.21,0.00,0.00,0.00,0.00,11.47,0.00,0.00,0.58,18.55,0.00,2.22,1.55,10.64,0.00,0.00,1.24
1,50.68,21.43,13.33,13.03,5.28,3.50,4.00,3.89,4.26,13.33,1.50,5.74,24.73,0.00,40.00,3.26,0.00,0.00,0.00,0.00,12.36,0.00,0.00,0.80,19.26,0.00,2.22,1.75,10.24,0.00,0.00,1.16
1,56.85,27.14,23.33,15.39,5.28,3.50,4.00,3.89,4.27,13.33,1.50,5.74,24.93,0.00,40.00,3.22,0.00,0.00,0.00,0.00,13.31,0.00,0.00,0.93,19.44,0.00,2.22,1.83,10.31,0.00,0.00,1.17
1,65.88,31.43,36.67,22.92,5.29,3.50,4.00,3.89,4.26,13.33,1.50,5.74,26.79,0.00,45.00,3.88,0.00,0.00,0.00,0.00,15.22,0.00,0.00,1.24,20.49,0.00,4.44,2.23,10.24,0.00,0.00,1.15
1,68.41,35.71,36.67,24.25,4.07,2.50,3.00,3.01,5.48,20.00,2.50,7.83,26.06,0.00,41.67,3.81,0.00,0.00,0.00,0.00,16.04,0.00,0.00,1.35,21.22,0.00,4.44,2.26,10.08,0.00,0.00,1.09
1,69.90,37.14,40.00,24.81,3.82,2.50,3.00,2.89,4.17,16.67,1.50,6.47,27.00,0.00,48.33,3.98,0.00,0.00,0.00,0.00,21.02,3.33,10.00,3.99,24.99,4.44,11.11,4.03,10.73,0.00,0.00,1.29
1,71.64,37.14,40.00,25.08,3.82,2.50,3.00,2.89,2.42,10.00,1.00,2.82,27.20,0.00,48.33,4.03,0.00,0.00,0.00,0.00,23.66,10.00,10.00,4.96,27.65,6.67,17.78,5.25,10.85,0.00,0.00,1.31
1,78.09,41.43,46.67,30.47,3.82,2.50,3.00,2.89,2.40,10.00,1.00,2.81,29.08,0.00,53.33,4.46,0.00,0.00,0.00,0.00,29.68,23.33,15.00,7.60,32.17,13.33,22.22,9.20,11.83,0.00,0.00,1.59
1,81.30,44.29,46.67,32.12,3.81,2.50,3.00,2.89,2.40,10.00,1.00,2.81,29.52,0.00,53.33,4.98,0.00,0.00,0.00,0.00,33.15,30.00,15.00,9.15,33.73,13.33,24.44,10.11,11.76,0.00,0.00,1.65
1,82.45,45.71,50.00,33.31,5.30,3.00,4.00,4.63,3.52,16.67,1.50,3.90,30.76,0.00,56.67,5.33,0.00,0.00,0.00,0.00,36.31,36.67,15.00,10.17,34.31,13.33,26.67,10.30,13.69,3.33,0.00,2.37
1,87.60,50.00,56.67,37.45,6.14,4.00,4.00,5.28,5.60,23.33,2.50,7.55,30.87,0.00,56.67,5.36,0.00,0.00,0.00,0.00,41.91,46.67,15.00,12.83,38.14,15.56,28.89,12.89,14.90,3.33,0.00,2.96
1,90.83,52.86,56.67,39.59,6.20,4.00,4.00,5.29,5.73,23.33,2.50,7.60,31.18,0.00,60.00,5.63,0.00,0.00,0.00,0.00,49.15,56.67,25.00,16.88,39.77,15.56,31.11,13.44,15.38,3.33,0.00,3.31
1,97.68,57.14,63.33,45.98,6.19,4.00,4.00,5.29,5.74,23.33,2.50,7.60,31.57,0.00,58.33,5.70,0.00,0.00,0.00,0.00,55.50,63.33,30.00,20.41,43.61,20.00,40.00,15.67,16.97,6.67,0.00,3.82
1,106.41,62.86,73.33,51.66,6.19,4.00,4.00,5.29,5.74,23.33,2.50,7.60,35.13,5.00,63.33,8.02,0.00,0.00,0.00,0.00,60.23,73.33,40.00,23.05,45.59,22.22,42.22,16.71,17.92,6.67,0.00,4.22
1,115.53,67.14,83.33,61.40,6.19,4.00,4.00,5.29,5.73,23.33,2.50,7.60,36.66,5.00,63.33,8.62,0.00,0.00,0.00,0.00,62.21,73.33,40.00,23.48,46.35,22.22,42.22,17.36,18.75,6.67,0.00,4.45
1,120.63,71.43,90.00,67.43,6.19,4.00,4.00,5.29,5.77,23.33,2.50,7.60,38.02,5.00,66.67,9.33,0.00,0.00,0.00,0.00,65.74,80.00,40.00,24.59,47.01,22.22,44.44,17.61,19.17,6.67,0.00,4.54
1,127.55,75.71,96.67,74.73,6.19,4.00,4.00,5.29,5.77,23.33,2.50,7.60,39.18,5.00,68.33,9.76,0.00,0.00,0.00,0.00,67.66,83.33,40.00,25.24,48.69,22.22,53.33,17.80,19.91,6.67,0.00,4.64
1,134.33,81.43,103.33,79.10,6.12,4.00,3.50,5.29,5.77,23.33,2.50,7.60,39.67,5.00,68.33,9.99,0.00,0.00,0.00,0.00,69.76,86.67,40.00,26.07,49.86,22.22,57.78,17.94,20.40,6.67,0.00,4.76
1,140.59,88.57,116.67,81.72,5.30,3.00,2.50,5.07,5.77,23.33,2.50,7.60,41.70,10.00,73.33,10.92,0.00,0.00,0.00,0.00,71.90,90.00,40.00,26.93,53.13,26.67,64.44,19.58,20.81,6.67,0.00,4.81
1,143.45,88.57,120.00,84.44,3.99,2.50,2.00,3.18,5.77,23.33,2.50,7.60,43.56,10.00,80.00,11.28,0.00,0.00,0.00,0.00,73.52,90.00,40.00,27.35,56.77,28.89,71.11,21.06,20.92,6.67,0.00,4.80
1,145.17,87.14,123.33,87.69,5.35,3.00,3.50,4.76,5.79,23.33,2.50,7.60,43.15,10.00,76.67,11.24,0.00,0.00,0.00,0.00,75.76,93.33,40.00,28.18,57.44,28.89,73.33,21.29,21.25,6.67,0.00,4.92
1,148.03,87.14,126.67,93.22,5.62,3.00,3.50,5.00,5.79,23.33,2.50,7.60,42.92,10.00,75.00,11.24,0.00,0.00,0.00,0.00,77.60,100.00,40.00,29.37,59.90,33.33,77.78,22.36,21.52,6.67,0.00,5.01
1,148.73,87.14,126.67,96.26,5.63,3.00,3.50,5.00,5.79,23.33,2.50,7.60,42.82,10.00,76.67,11.20,0.00,0.00,0.00,0.00,78.48,103.33,40.00,30.39,61.06,33.33,84.44,22.57,22.87,10.00,0.00,5.68
1,147.85,85.71,116.67,96.88,5.63,3.00,3.50,5.00,5.79,23.33,2.50,7.60,43.66,10.00,83.33,11.27,0.00,0.00,0.00,0.00,84.80,113.33,50.00,34.67,62.27,33.33,88.89,22.84,23.19,10.00,0.00,5.85
1,146.51,81.43,110.00,98.62,5.62,3.00,3.50,5.00,5.79,23.33,2.50,7.60,41.24,10.00,80.00,10.57,0.00,0.00,0.00,0.00,85.30,116.67,50.00,35.06,63.10,33.33,91.11,22.90,23.47,10.00,0.00,5.92
1,148.08,82.86,110.00,98.42,5.62,3.00,3.50,5.00,5.42,20.00,2.00,7.60,42.34,10.00,86.67,10.80,0.00,0.00,0.00,0.00,87.24,123.33,55.00,35.52,64.49,35.56,95.56,23.14,23.81,10.00,0.00,5.96
1,151.98,87.14,113.33,101.87,5.62,3.00,3.50,5.00,3.87,13.33,1.50,4.82,42.33,10.00,81.67,10.99,0.00,0.00,0.00,0.00,89.82,136.67,50.00,37.05,64.49,35.56,95.56,23.74,23.73,10.00,0.00,5.96
1,157.90,90.00,116.67,108.21,5.61,3.00,3.50,5.00,3.89,13.33,1.50,4.81,42.86,10.00,80.00,11.45,0.00,0.00,0.00,0.00,88.35,136.67,45.00,35.14,61.05,31.11,88.89,21.89,23.71,10.00,0.00,5.93
1,156.46,90.00,116.67,107.81,5.60,3.00,3.50,5.00,5.72,20.00,2.50,7.72,41.71,10.00,75.00,11.17,0.00,0.00,0.00,0.00,83.16,123.33,40.00,33.37,58.82,26.67,88.89,19.97,23.09,10.00,0.00,5.72
1,159.31,91.43,123.33,107.96,5.61,3.00,3.50,5.00,6.00,20.00,2.50,8.07,42.17,10.00,80.00,10.92,0.00,0.00,0.00,0.00,80.53,116.67,40.00,31.55,56.41,24.44,84.44,17.57,23.61,10.00,0.00,5.83
1,160.71,91.43,123.33,109.56,5.20,3.00,3.00,5.00,5.13,16.67,2.00,7.18,42.00,10.00,76.67,10.91,0.00,0.00,0.00,0.00,79.58,116.67,40.00,30.68,58.65,26.67,88.89,18.33,22.31,6.67,0.00,5.29
1,159.94,90.00,120.00,108.57,3.41,1.50,2.50,2.70,2.95,6.67,1.00,3.63,42.83,10.00,80.00,11.10,0.00,0.00,0.00,0.00,77.71,113.33,40.00,28.72,56.31,24.44,93.33,15.92,21.14,6.67,0.00,4.71
1,164.45,95.71,123.33,111.91,3.23,1.50,2.50,2.61,2.82,6.67,1.00,3.30,43.09,10.00,78.33,11.21,0.00,0.00,0.00,0.00,75.53,113.33,35.00,26.98,55.49,24.44,93.33,15.32,20.53,6.67,0.00,4.20
1,163.10,95.71,120.00,108.77,5.11,2.50,3.50,4.67,4.85,13.33,2.00,6.77,45.38,10.00,83.33,11.82,0.00,0.00,0.00,0.00,69.86,103.33,25.00,22.87,52.85,22.22,86.67,13.86,20.10,3.33,0.00,3.91
1,159.72,95.71,116.67,104.37,5.50,2.50,3.50,4.95,4.98,13.33,2.00,6.81,42.34,5.00,78.33,9.98,0.00,0.00,0.00,0.00,68.75,100.00,20.00,22.67,52.45,20.00,86.67,13.53,18.41,3.33,0.00,3.41
1,156.07,94.29,106.67,100.59,5.53,2.50,3.50,4.95,4.99,13.33,2.00,6.81,42.77,5.00,80.00,10.03,0.00,0.00,0.00,0.00,69.70,106.67,20.00,22.43,52.49,20.00,93.33,12.22,18.34,3.33,0.00,3.46
1,157.61,95.71,110.00,100.09,5.53,2.50,3.50,4.95,4.96,13.33,2.00,6.81,40.95,5.00,78.33,9.09,0.00,0.00,0.00,0.00,71.23,110.00,25.00,24.64,52.72,20.00,93.33,12.57,17.88,3.33,0.00,3.31
1,157.41,97.14,110.00,98.61,5.53,2.50,3.50,4.95,4.95,13.33,2.00,6.81,39.38,5.00,75.00,8.68,0.00,0.00,0.00,0.00,71.38,106.67,25.00,25.14,54.22,22.22,93.33,13.53,17.44,3.33,0.00,3.27
1,153.87,92.86,110.00,95.06,5.52,2.50,3.50,4.95,4.96,13.33,2.00,6.81,38.33,5.00,71.67,8.39,0.00,0.00,0.00,0.00,69.79,103.33,25.00,24.55,55.13,22.22,91.11,14.18,17.20,3.33,0.00,3.22
1,156.81,91.43,103.33,102.13,5.53,2.50,3.50,4.95,4.96,13.33,2.00,6.81,37.78,5.00,68.33,8.46,0.00,0.00,0.00,0.00,72.86,106.67,30.00,26.72,52.99,17.78,88.89,13.05,17.13,3.33,0.00,3.27
1,159.61,94.29,113.33,103.53,5.41,2.50,3.00,4.95,4.96,13.33,2.00,6.81,35.17,0.00,60.00,7.49,0.00,0.00,0.00,0.00,72.16,106.67,30.00,26.43,50.70,15.56,84.44,12.20,16.98,3.33,0.00,3.28
1,160.37,94.29,110.00,104.20,3.61,1.50,1.00,3.93,4.94,13.33,2.00,6.81,35.46,0.00,60.00,7.59,0.00,0.00,0.00,0.00,73.95,110.00,30.00,27.55,51.11,15.56,82.22,12.54,16.60,3.33,0.00,3.16
1,162.92,98.57,120.00,103.15,2.80,1.00,1.00,2.35,4.96,13.33,2.00,6.81,36.52,0.00,63.33,7.92,0.00,0.00,0.00,0.00,73.66,106.67,30.00,27.02,49.40,11.11,77.78,12.27,16.67,3.33,0.00,3.23
1,164.31,97.14,120.00,101.83,4.00,2.00,2.00,3.22,4.96,13.33,2.00,6.81,36.44,0.00,61.67,7.93,0.00,0.00,0.00,0.00,72.64,103.33,30.00,26.46,49.86,13.33,73.33,13.05,15.82,3.33,0.00,3.02
1,164.45,97.14,126.67,103.38,4.16,2.00,2.00,3.32,4.95,13.33,2.00,6.81,35.96,0.00,55.00,8.00,0.00,0.00,0.00,0.00,68.62,100.00,20.00,21.99,49.34,13.33,73.33,12.84,14.92,0.00,0.00,2.42
1,166.71,102.86,136.67,101.91,4.17,2.00,2.00,3.32,4.95,13.33,2.00,6.81,36.75,0.00,55.00,8.40,0.00,0.00,0.00,0.00,67.53,93.33,20.00,21.77,48.24,13.33,71.11,12.81,15.21,0.00,0.00,2.43
1,164.53,101.43,140.00,99.89,4.17,2.00,2.00,3.32,4.95,13.33,2.00,6.81,36.01,0.00,53.33,8.17,0.00,0.00,0.00,0.00,69.84,96.67,20.00,22.76,48.60,13.33,71.11,12.91,14.96,0.00,0.00,2.43
1,167.38,104.29,143.33,99.80,4.18,2.00,2.00,3.32,4.95,13.33,2.00,6.81,35.98,0.00,60.00,7.87,0.00,0.00,0.00,0.00,65.48,80.00,15.00,21.32,47.05,11.11,68.89,12.02,14.74,0.00,0.00,2.41
1,163.77,102.86,143.33,96.84,4.19,2.00,2.00,3.32,4.94,13.33,2.00,6.81,35.79,0.00,61.67,7.64,0.00,0.00,0.00,0.00,64.31,73.33,15.00,20.73,46.89,8.89,66.67,11.89,15.55,3.33,0.00,3.16
1,165.21,105.71,140.00,97.07,4.19,2.00,2.00,3.32,3.62,10.00,1.00,5.70,35.51,0.00,61.67,7.37,0.00,0.00,0.00,0.00,63.88,73.33,15.00,20.43,46.05,8.89,64.44,11.74,15.53,3.33,0.00,3.31
1,164.92,104.29,136.67,98.64,4.18,2.00,2.00,3.32,2.79,6.67,1.00,3.55,35.21,0.00,60.00,7.55,0.00,0.00,0.00,0.00,66.18,80.00,15.00,21.04,45.25,8.89,64.44,11.25,15.29,3.33,0.00,3.32
1,167.85,104.29,143.33,100.18,4.20,2.00,2.00,3.32,4.66,16.67,2.00,6.64,34.28,0.00,61.67,7.14,0.00,0.00,0.00,0.00,65.76,76.67,15.00,21.38,43.38,6.67,60.00,10.51,15.06,3.33,0.00,3.07
1,167.69,104.29,143.33,99.28,4.20,2.00,2.00,3.32,5.56,23.33,2.00,7.62,33.48,0.00,58.33,7.03,0.00,0.00,0.00,0.00,64.01,70.00,15.00,20.76,42.44,6.67,53.33,10.29,15.68,3.33,0.00,3.33
