0,18.39,2.53,0.00,3.05,14.72,0.00,0.00,2.19,34.47,10.26,0.00,13.80,24.66,0.00,35.62,8.12,0.00,0.00,0.00,0.00,11.72,0.00,0.00,1.90,17.60,0.00,4.92,1.81,3.09,0.00,0.00,0.10
0,18.22,2.53,0.00,2.98,15.26,0.00,0.00,2.25,34.53,10.26,0.00,13.67,24.78,0.00,36.99,8.06,0.00,0.00,0.00,0.00,11.46,0.00,0.00,1.86,17.30,0.00,4.92,1.77,3.12,0.00,0.00,0.11
0,18.34,2.53,0.00,3.05,15.52,0.00,0.00,2.31,34.87,10.26,0.00,13.78,24.42,0.00,36.99,7.94,0.00,0.00,0.00,0.00,11.34,0.00,0.00,1.68,17.51,0.00,4.92,1.74,3.21,0.00,0.00,0.12
0,19.16,2.53,0.00,3.31,15.10,0.00,0.00,2.26,34.14,7.69,0.00,13.49,24.01,0.00,34.25,7.77,0.00,0.00,0.00,0.00,11.16,0.00,0.00,1.66,17.46,0.00,4.92,1.70,3.19,0.00,0.00,0.11
0,19.12,2.53,0.00,3.40,15.22,0.00,0.00,2.25,33.76,7.69,0.00,13.80,23.73,0.00,32.88,7.54,0.00,0.00,0.00,0.00,10.88,0.00,0.00,1.57,16.84,0.00,4.92,1.58,3.15,0.00,0.00,0.11
0,19.17,2.53,0.00,3.39,15.86,0.00,0.00,2.38,33.71,7.69,0.00,13.84,23.84,0.00,32.88,7.55,0.00,0.00,0.00,0.00,10.80,0.00,0.00,1.57,17.01,0.00,4.92,1.56,3.24,0.00,0.00,0.11
0,19.70,3.80,0.00,3.70,16.37,0.00,0.00,2.52,35.50,7.69,0.00,14.72,25.04,0.00,35.62,7.96,0.00,0.00,0.00,0.00,11.44,0.00,0.00,1.74,17.06,0.00,4.92,1.57,3.15,0.00,0.00,0.11
0,18.49,2.53,0.00,3.41,16.13,0.00,0.00,2.44,36.57,7.69,0.00,15.45,25.94,0.00,35.62,8.66,0.00,0.00,0.00,0.00,11.22,0.00,0.00,1.69,16.59,0.00,3.28,1.49,3.06,0.00,0.00,0.11
0,18.42,2.53,0.00,3.51,16.23,0.00,0.00,2.39,36.68,7.69,0.00,15.54,26.63,0.00,35.62,9.19,0.00,0.00,0.00,0.00,11.31,0.00,0.00,1.71,16.56,0.00,3.28,1.46,3.01,0.00,0.00,0.11
0,18.76,2.53,0.00,3.61,16.67,0.00,0.00,2.50,36.88,7.69,0.00,15.77,27.08,0.00,35.62,9.52,0.00,0.00,0.00,0.00,11.58,0.00,0.00,1.81,16.38,0.00,3.28,1.45,3.07,0.00,0.00,0.11
0,18.73,2.53,0.00,3.63,15.86,0.00,0.00,2.27,36.01,7.69,0.00,15.53,26.93,0.00,32.88,9.60,0.00,0.00,0.00,0.00,11.28,0.00,0.00,1.82,16.44,0.00,3.28,1.44,2.98,0.00,0.00,0.11
0,18.32,1.27,0.00,3.40,16.23,0.00,0.00,2.36,35.35,5.13,0.00,14.89,26.58,0.00,32.88,9.48,0.00,0.00,0.00,0.00,11.29,0.00,0.00,1.73,16.74,0.00,3.28,1.46,3.07,0.00,0.00,0.11
0,18.15,1.27,0.00,3.36,16.06,0.00,0.00,2.30,35.33,2.56,0.00,14.82,25.23,0.00,31.51,8.75,0.00,0.00,0.00,0.00,11.58,0.00,0.00,1.82,16.80,0.00,3.28,1.46,2.91,0.00,0.00,0.10
0,18.17,1.27,0.00,3.38,15.87,0.00,0.00,2.26,35.20,2.56,0.00,14.33,24.43,0.00,30.14,8.17,0.00,0.00,0.00,0.00,11.72,0.00,0.00,1.87,17.03,0.00,3.28,1.47,2.88,0.00,0.00,0.10
0,18.47,1.27,0.00,3.59,15.30,0.00,0.00,2.20,35.13,2.56,0.00,14.22,24.03,0.00,28.77,7.79,0.00,0.00,0.00,0.00,11.75,0.00,0.00,1.86,17.18,0.00,3.28,1.51,3.14,0.00,0.00,0.12
0,18.35,1.27,0.00,3.60,14.39,0.00,0.00,1.91,34.23,2.56,0.00,13.69,22.92,0.00,26.03,7.11,0.00,0.00,0.00,0.00,12.22,0.00,0.00,2.18,17.12,0.00,3.28,1.54,3.19,0.00,0.00,0.12
0,19.34,1.27,0.00,3.84,14.38,0.00,0.00,1.94,34.59,2.56,0.00,13.79,22.62,0.00,24.66,6.81,0.00,0.00,0.00,0.00,12.25,0.00,0.00,2.17,17.10,0.00,3.28,1.53,3.24,0.00,0.00,0.12
0,19.43,1.27,0.00,3.89,14.29,0.00,0.00,1.93,34.81,2.56,0.00,14.18,22.35,0.00,26.03,6.53,0.00,0.00,0.00,0.00,11.83,0.00,0.00,2.11,17.24,0.00,3.28,1.55,3.28,0.00,0.00,0.12
0,19.26,1.27,0.00,3.86,14.74,0.00,0.00,2.02,34.76,2.56,0.00,13.78,21.49,0.00,24.66,6.11,0.00,0.00,0.00,0.00,11.77,0.00,0.00,2.12,17.78,0.00,3.28,1.63,3.32,0.00,0.00,0.13
0,19.33,1.27,0.00,3.85,14.75,0.00,0.00,2.01,33.49,2.56,0.00,12.83,21.36,0.00,24.66,5.80,0.00,0.00,0.00,0.00,11.48,0.00,0.00,2.07,16.86,0.00,0.00,1.39,3.34,0.00,0.00,0.13
0,19.43,1.27,0.00,3.92,15.32,0.00,0.00,2.19,32.89,0.00,0.00,12.22,21.33,0.00,26.03,5.80,0.00,0.00,0.00,0.00,11.17,0.00,0.00,2.00,16.88,0.00,0.00,1.38,3.43,0.00,0.00,0.13
0,19.36,1.27,0.00,3.84,15.12,0.00,0.00,2.15,33.39,0.00,0.00,12.29,20.90,0.00,24.66,5.55,0.00,0.00,0.00,0.00,11.14,0.00,0.00,2.04,16.55,0.00,0.00,1.30,3.35,0.00,0.00,0.13
0,20.01,2.53,0.00,4.04,14.78,0.00,0.00,2.14,33.38,0.00,0.00,12.45,20.94,0.00,24.66,5.70,0.00,0.00,0.00,0.00,11.03,0.00,0.00,1.96,17.27,0.00,0.00,1.38,3.30,0.00,0.00,0.12
0,19.22,2.53,0.00,3.92,15.05,0.00,0.00,2.21,32.24,0.00,0.00,12.15,20.86,0.00,24.66,5.70,0.00,0.00,0.00,0.00,11.24,0.00,0.00,2.01,17.71,0.00,1.64,1.43,3.25,0.00,0.00,0.12
0,18.40,2.53,0.00,3.80,15.03,0.00,0.00,2.21,32.95,0.00,0.00,12.08,21.15,0.00,24.66,5.72,0.00,0.00,0.00,0.00,10.89,0.00,0.00,1.89,17.39,0.00,1.64,1.36,3.22,0.00,0.00,0.11
0,18.03,2.53,0.00,3.51,15.16,0.00,0.00,2.27,32.25,0.00,0.00,11.89,21.23,0.00,24.66,5.72,0.00,0.00,0.00,0.00,11.09,0.00,0.00,1.95,18.01,0.00,4.92,1.51,3.29,0.00,0.00,0.12
0,18.04,2.53,0.00,3.49,15.12,0.00,0.00,2.24,32.17,0.00,0.00,11.82,21.35,0.00,24.66,5.79,0.00,0.00,0.00,0.00,11.22,0.00,0.00,2.00,18.08,0.00,4.92,1.53,3.27,0.00,0.00,0.12
0,17.42,1.27,0.00,3.17,15.30,0.00,0.00,2.38,30.77,0.00,0.00,10.78,20.52,0.00,23.29,5.44,0.00,0.00,0.00,0.00,11.27,0.00,0.00,1.93,18.14,0.00,4.92,1.52,3.17,0.00,0.00,0.11
0,17.73,1.27,0.00,3.22,15.08,0.00,0.00,2.34,29.17,0.00,0.00,10.00,19.18,0.00,21.92,4.82,0.00,0.00,0.00,0.00,11.07,0.00,0.00,1.90,18.10,0.00,4.92,1.52,3.36,0.00,0.00,0.12
0,18.55,2.53,0.00,3.37,15.19,0.00,0.00,2.40,29.06,0.00,0.00,9.68,18.34,0.00,20.55,4.36,0.00,0.00,0.00,0.00,11.52,0.00,0.00,2.01,18.39,0.00,4.92,1.57,3.49,0.00,0.00,0.13
0,18.30,2.53,0.00,3.32,14.94,0.00,0.00,2.32,28.12,0.00,0.00,9.24,17.95,0.00,20.55,3.92,0.00,0.00,0.00,0.00,11.49,0.00,0.00,1.95,18.11,0.00,4.92,1.50,3.38,0.00,0.00,0.12
0,18.79,3.80,0.00,3.50,15.26,0.00,0.00,2.34,29.20,0.00,0.00,9.77,17.96,0.00,20.55,3.87,0.00,0.00,0.00,0.00,11.61,0.00,0.00,2.05,18.10,0.00,4.92,1.50,3.45,0.00,0.00,0.13
0,18.79,3.80,0.00,3.58,14.90,0.00,0.00,2.28,28.60,0.00,0.00,9.49,17.83,0.00,19.18,3.85,0.00,0.00,0.00,0.00,11.52,0.00,0.00,2.02,18.16,0.00,4.92,1.55,3.46,0.00,0.00,0.14
0,18.95,3.80,0.00,3.59,15.01,0.00,0.00,2.31,27.77,0.00,0.00,8.71,18.50,0.00,19.18,4.14,0.00,0.00,0.00,0.00,11.53,0.00,0.00,2.02,18.22,0.00,4.92,1.57,3.48,0.00,0.00,0.14
0,19.71,5.06,0.00,3.79,15.29,0.00,0.00,2.35,27.40,0.00,0.00,8.72,18.60,0.00,20.55,4.28,0.00,0.00,0.00,0.00,11.69,0.00,0.00,2.08,18.30,0.00,4.92,1.62,3.53,0.00,0.00,0.14
0,20.34,5.06,0.00,4.02,15.26,0.00,0.00,2.35,27.15,0.00,0.00,8.66,18.40,0.00,19.18,4.22,0.00,0.00,0.00,0.00,12.05,0.00,0.00,2.13,18.36,0.00,4.92,1.61,3.40,0.00,0.00,0.13
0,20.13,5.06,0.00,3.79,15.44,0.00,0.00,2.34,27.82,0.00,0.00,9.03,18.20,0.00,17.81,4.29,0.00,0.00,0.00,0.00,11.92,0.00,0.00,1.97,18.50,0.00,4.92,1.60,3.36,0.00,0.00,0.12
0,19.87,5.06,0.00,3.67,15.22,0.00,0.00,2.29,26.64,0.00,0.00,8.42,17.59,0.00,16.44,4.03,0.00,0.00,0.00,0.00,11.90,0.00,0.00,1.99,18.16,0.00,4.92,1.54,3.35,0.00,0.00,0.12
0,19.31,5.06,0.00,3.53,15.45,0.00,0.00,2.34,25.27,0.00,0.00,7.52,17.46,0.00,15.07,3.93,0.00,0.00,0.00,0.00,11.86,0.00,0.00,2.01,18.11,0.00,4.92,1.54,3.29,0.00,0.00,0.12
0,18.85,5.06,0.00,3.32,15.10,0.00,0.00,2.31,26.22,0.00,0.00,8.13,17.76,0.00,16.44,4.06,0.00,0.00,0.00,0.00,11.65,0.00,0.00,1.95,17.88,0.00,4.92,1.50,3.32,0.00,0.00,0.12
0,18.88,5.06,0.00,3.48,15.43,0.00,0.00,2.36,26.50,0.00,0.00,8.44,17.59,0.00,15.07,4.11,0.00,0.00,0.00,0.00,11.57,0.00,0.00,1.91,18.10,0.00,4.92,1.50,3.29,0.00,0.00,0.12
0,18.35,5.06,0.00,3.21,15.44,0.00,0.00,2.24,26.10,0.00,0.00,8.35,16.56,0.00,12.33,3.59,0.00,0.00,0.00,0.00,12.03,0.00,0.00,1.99,17.75,0.00,4.92,1.43,3.26,0.00,0.00,0.12
0,18.30,5.06,0.00,3.23,15.64,0.00,0.00,2.31,25.94,0.00,0.00,8.44,16.38,0.00,10.96,3.58,0.00,0.00,0.00,0.00,11.75,0.00,0.00,1.94,17.64,0.00,4.92,1.45,3.39,0.00,0.00,0.13
0,18.02,3.80,0.00,3.15,15.46,0.00,0.00,2.28,26.21,0.00,0.00,8.54,16.36,0.00,10.96,3.42,0.00,0.00,0.00,0.00,11.88,0.00,0.00,2.02,17.73,0.00,6.56,1.50,3.41,0.00,0.00,0.13
0,18.75,6.33,0.00,3.41,14.90,0.00,0.00,2.13,27.37,0.00,0.00,8.90,16.35,0.00,10.96,3.51,0.00,0.00,0.00,0.00,11.79,0.00,0.00,2.02,17.33,0.00,4.92,1.47,3.34,0.00,0.00,0.12
0,19.05,6.33,0.00,3.42,15.63,0.00,0.00,2.43,26.48,0.00,0.00,8.68,16.27,0.00,10.96,3.52,0.00,0.00,0.00,0.00,11.86,0.00,0.00,2.01,17.50,0.00,4.92,1.50,3.55,0.00,0.00,0.14
0,20.45,7.59,0.00,3.98,15.82,0.00,0.00,2.47,27.00,0.00,0.00,8.97,16.06,0.00,10.96,3.46,0.00,0.00,0.00,0.00,11.57,0.00,0.00,2.00,17.28,0.00,1.64,1.45,3.47,0.00,0.00,0.13
0,20.65,7.59,0.00,3.99,15.75,0.00,0.00,2.42,26.80,0.00,0.00,9.06,16.52,0.00,13.70,3.63,0.00,0.00,0.00,0.00,11.74,0.00,0.00,1.94,17.73,0.00,3.28,1.46,3.42,0.00,0.00,0.13
0,20.49,7.59,0.00,4.12,14.67,0.00,0.00,2.08,26.35,0.00,0.00,8.98,16.45,0.00,12.33,3.66,0.00,0.00,0.00,0.00,11.51,0.00,0.00,2.05,17.83,0.00,4.92,1.51,3.55,0.00,0.00,0.15
0,20.18,7.59,0.00,4.08,15.34,0.00,0.00,2.23,26.92,0.00,0.00,9.29,16.72,0.00,12.33,3.76,0.00,0.00,0.00,0.00,11.65,0.00,0.00,2.09,17.56,0.00,4.92,1.49,3.29,0.00,0.00,0.13
0,19.74,6.33,0.00,4.04,15.38,0.00,0.00,2.25,26.34,0.00,0.00,8.86,16.85,0.00,12.33,3.80,0.00,0.00,0.00,0.00,11.83,0.00,0.00,2.17,17.53,0.00,4.92,1.48,3.12,0.00,0.00,0.12
0,19.92,6.33,0.00,3.98,15.64,0.00,0.00,2.36,27.41,0.00,0.00,9.47,16.94,0.00,13.70,3.87,0.00,0.00,0.00,0.00,11.80,0.00,0.00,2.16,17.29,0.00,4.92,1.46,3.18,0.00,0.00,0.12
0,19.26,5.06,0.00,3.92,15.16,0.00,0.00,2.31,28.02,0.00,0.00,9.67,17.03,0.00,15.07,3.94,0.00,0.00,0.00,0.00,11.95,0.00,0.00,2.16,17.09,0.00,4.92,1.43,3.25,0.00,0.00,0.12
0,19.10,5.06,0.00,3.80,15.12,0.00,0.00,2.27,28.57,0.00,0.00,10.34,16.56,0.00,15.07,3.77,0.00,0.00,0.00,0.00,12.01,0.00,0.00,2.12,16.94,0.00,4.92,1.39,3.36,0.00,0.00,0.13
0,19.66,5.06,0.00,3.95,15.32,0.00,0.00,2.31,28.23,0.00,0.00,10.21,16.28,0.00,15.07,3.48,0.00,0.00,0.00,0.00,12.53,0.00,0.00,2.27,17.17,0.00,4.92,1.42,3.42,0.00,0.00,0.13
0,19.10,3.80,0.00,3.78,15.07,0.00,0.00,2.25,28.68,0.00,0.00,10.26,16.71,0.00,15.07,3.49,0.00,0.00,0.00,0.00,11.95,0.00,0.00,2.14,16.88,0.00,4.92,1.38,3.37,0.00,0.00,0.13
0,18.87,3.80,0.00,3.87,15.23,0.00,0.00,2.29,28.90,0.00,0.00,10.38,16.60,0.00,16.44,3.45,0.00,0.00,0.00,0.00,11.91,0.00,0.00,2.10,16.96,0.00,4.92,1.38,3.34,0.00,0.00,0.13
0,18.49,3.80,0.00,3.73,15.01,0.00,0.00,2.25,29.97,0.00,0.00,11.11,16.78,0.00,16.44,3.33,0.00,0.00,0.00,0.00,11.80,0.00,0.00,2.07,17.15,0.00,4.92,1.44,3.45,0.00,0.00,0.14
0,18.77,3.80,0.00,3.76,15.47,0.00,0.00,2.35,30.67,0.00,0.00,11.35,16.65,0.00,16.44,3.23,0.00,0.00,0.00,0.00,11.79,0.00,0.00,2.10,17.14,0.00,4.92,1.47,3.50,0.00,0.00,0.14
0,18.38,3.80,0.00,3.71,15.61,0.00,0.00,2.36,30.48,0.00,0.00,11.31,16.21,0.00,16.44,3.14,0.00,0.00,0.00,0.00,11.51,0.00,0.00,2.02,17.07,0.00,4.92,1.44,3.43,0.00,0.00,0.14
0,18.12,3.80,0.00,3.65,15.68,0.00,0.00,2.36,30.10,0.00,0.00,11.00,16.19,0.00,15.07,3.07,0.00,0.00,0.00,0.00,11.75,0.00,0.00,2.06,17.77,0.00,8.20,1.57,3.39,0.00,0.00,0.14
0,18.11,3.80,0.00,3.64,15.25,0.00,0.00,2.31,29.46,0.00,0.00,10.82,15.85,0.00,13.70,2.92,0.00,0.00,0.00,0.00,11.57,0.00,0.00,2.07,17.31,0.00,8.20,1.51,3.39,0.00,0.00,0.14
0,17.41,3.80,0.00,3.43,15.10,0.00,0.00,2.28,29.37,0.00,0.00,10.82,16.88,0.00,16.44,3.45,0.00,0.00,0.00,0.00,11.70,0.00,0.00,2.11,18.21,0.00,9.84,1.69,3.40,0.00,0.00,0.14
0,18.28,5.06,0.00,3.85,14.77,0.00,0.00,2.24,29.61,0.00,0.00,10.68,17.16,0.00,17.81,3.50,0.00,0.00,0.00,0.00,11.93,0.00,0.00,2.20,18.56,0.00,11.48,1.78,3.35,0.00,0.00,0.14
0,17.93,5.06,0.00,3.80,15.14,0.00,0.00,2.27,29.68,0.00,0.00,10.49,17.21,0.00,16.44,3.65,0.00,0.00,0.00,0.00,11.69,0.00,0.00,2.09,18.47,0.00,9.84,1.78,3.31,0.00,0.00,0.14
0,17.44,2.53,0.00,3.54,15.44,0.00,0.00,2.29,28.80,0.00,0.00,10.22,17.40,0.00,16.44,3.74,0.00,0.00,0.00,0.00,11.79,0.00,0.00,2.06,18.78,0.00,9.84,1.86,3.39,0.00,0.00,0.14
0,18.01,2.53,0.00,3.77,15.08,0.00,0.00,2.10,29.66,0.00,0.00,10.66,18.13,0.00,17.81,4.10,0.00,0.00,0.00,0.00,11.96,0.00,0.00,2.08,18.64,0.00,9.84,1.79,3.26,0.00,0.00,0.13
0,18.25,3.80,2.00,3.90,15.37,0.00,0.00,2.16,30.05,0.00,0.00,10.67,18.27,0.00,17.81,4.25,0.00,0.00,0.00,0.00,12.10,0.00,0.00,2.12,18.08,0.00,9.84,1.72,3.20,0.00,0.00,0.13
0,17.96,3.80,2.00,3.86,15.04,0.00,0.00,2.07,30.01,0.00,0.00,10.38,17.81,0.00,15.07,4.08,0.00,0.00,0.00,0.00,12.13,0.00,0.00,2.22,17.60,0.00,8.20,1.69,3.23,0.00,0.00,0.13
0,18.29,3.80,2.00,3.99,15.62,0.00,0.00,2.17,31.08,0.00,0.00,11.39,18.03,0.00,15.07,4.18,0.00,0.00,0.00,0.00,11.58,0.00,0.00,2.01,17.17,0.00,6.56,1.61,3.19,0.00,0.00,0.12
0,18.92,3.80,2.00,4.01,15.27,0.00,0.00,2.06,31.70,0.00,0.00,11.68,18.26,0.00,16.44,4.12,0.00,0.00,0.00,0.00,11.87,0.00,0.00,2.04,16.74,0.00,6.56,1.58,3.30,0.00,0.00,0.13
0,19.42,3.80,2.00,4.13,15.57,0.00,0.00,2.13,31.48,0.00,0.00,11.73,18.32,0.00,17.81,4.09,0.00,0.00,0.00,0.00,11.94,0.00,0.00,2.11,16.78,0.00,6.56,1.57,3.38,0.00,0.00,0.13
0,20.60,6.33,4.00,4.82,15.87,0.00,0.00,2.12,30.89,0.00,0.00,11.32,17.98,0.00,16.44,3.95,0.00,0.00,0.00,0.00,12.07,0.00,0.00,2.11,16.71,0.00,6.56,1.56,3.31,0.00,0.00,0.13
0,22.59,8.86,4.00,5.51,16.24,0.00,0.00,2.18,29.76,0.00,0.00,10.85,17.89,0.00,15.07,3.91,0.00,0.00,0.00,0.00,12.45,0.00,0.00,2.29,17.36,0.00,6.56,1.62,3.17,0.00,0.00,0.11
0,23.42,8.86,4.00,6.15,16.39,0.00,0.00,2.23,29.02,0.00,0.00,9.99,18.28,0.00,16.44,4.00,0.00,0.00,0.00,0.00,12.40,0.00,0.00,2.28,17.66,0.00,6.56,1.67,3.04,0.00,0.00,0.10
0,24.55,11.39,4.00,6.59,16.42,0.00,0.00,2.25,29.51,0.00,0.00,10.23,18.38,0.00,16.44,4.09,0.00,0.00,0.00,0.00,12.40,0.00,0.00,2.38,17.75,0.00,6.56,1.66,3.05,0.00,0.00,0.11
0,25.64,12.66,4.00,6.97,16.28,0.00,0.00,2.20,29.98,2.56,0.00,10.80,17.90,0.00,16.44,4.02,0.00,0.00,0.00,0.00,12.67,0.00,0.00,2.61,18.04,0.00,6.56,1.68,3.12,0.00,0.00,0.11
0,26.66,15.19,4.00,7.54,16.10,0.00,0.00,2.21,28.83,2.56,0.00,10.29,17.51,0.00,15.07,3.96,0.00,0.00,0.00,0.00,13.58,0.00,0.00,3.12,18.47,0.00,6.56,1.79,3.07,0.00,0.00,0.11
0,27.45,16.46,4.00,8.12,16.00,0.00,0.00,2.21,28.16,2.56,0.00,9.40,17.89,0.00,17.81,4.08,0.00,0.00,0.00,0.00,13.40,0.00,0.00,3.12,18.45,0.00,6.56,1.78,2.94,0.00,0.00,0.10
0,27.60,17.72,4.00,8.31,15.62,0.00,0.00,2.10,27.87,2.56,0.00,9.13,18.32,0.00,20.55,4.17,0.00,0.00,0.00,0.00,12.96,0.00,0.00,2.96,18.35,0.00,6.56,1.71,2.99,0.00,0.00,0.10
0,29.85,20.25,4.00,9.28,15.96,0.00,0.00,2.19,28.23,2.56,0.00,9.23,18.56,0.00,20.55,4.21,0.00,0.00,0.00,0.00,14.18,0.00,0.00,3.36,19.37,0.00,9.84,1.87,3.00,0.00,0.00,0.10
0,30.87,21.52,4.00,10.19,15.68,0.00,0.00,2.18,28.63,2.56,0.00,9.57,18.71,0.00,20.55,4.45,0.00,0.00,0.00,0.00,14.38,0.00,0.00,3.46,18.60,0.00,6.56,1.79,2.99,0.00,0.00,0.10
0,31.17,21.52,4.00,10.36,16.08,0.00,0.00,2.33,28.27,2.56,0.00,9.57,18.80,0.00,20.55,4.47,0.00,0.00,0.00,0.00,14.55,0.00,0.00,3.49,19.20,0.00,6.56,1.88,3.07,0.00,0.00,0.11
0,31.42,21.52,4.00,10.39,16.28,0.00,0.00,2.36,28.93,2.56,0.00,9.64,18.10,0.00,19.18,4.13,0.00,0.00,0.00,0.00,15.10,0.00,0.00,3.64,18.61,0.00,4.92,1.73,3.08,0.00,0.00,0.11
0,30.39,20.25,4.00,9.89,16.63,0.00,0.00,2.40,28.97,2.56,0.00,9.86,17.89,0.00,19.18,4.07,0.00,0.00,0.00,0.00,14.84,0.00,0.00,3.55,17.86,0.00,3.28,1.60,3.11,0.00,0.00,0.11
0,30.30,20.25,4.00,9.84,16.23,0.00,0.00,2.34,28.72,2.56,0.00,9.92,17.05,0.00,19.18,3.86,0.00,0.00,0.00,0.00,15.19,0.00,0.00,3.69,17.90,0.00,3.28,1.61,3.17,0.00,0.00,0.11
0,30.37,20.25,4.00,9.89,16.45,0.00,0.00,2.41,28.97,2.56,0.00,10.11,17.08,0.00,19.18,3.83,0.00,0.00,0.00,0.00,15.10,0.00,0.00,3.67,17.55,0.00,3.28,1.56,3.10,0.00,0.00,0.10
0,29.80,20.25,4.00,9.68,15.86,0.00,0.00,2.29,28.29,2.56,0.00,9.91,16.57,0.00,20.55,3.48,0.00,0.00,0.00,0.00,14.72,0.00,0.00,3.60,16.86,0.00,3.28,1.49,3.09,0.00,0.00,0.10
0,28.64,17.72,2.00,9.10,15.72,0.00,0.00,2.24,28.43,2.56,0.00,9.62,16.71,0.00,21.92,3.33,0.00,0.00,0.00,0.00,14.98,0.00,0.00,3.67,17.13,0.00,3.28,1.51,3.19,0.00,0.00,0.11
0,29.12,17.72,2.00,9.14,15.57,0.00,0.00,2.20,28.14,2.56,0.00,9.77,16.68,0.00,21.92,3.33,0.00,0.00,0.00,0.00,14.64,0.00,0.00,3.46,17.20,0.00,3.28,1.57,3.10,0.00,0.00,0.10
0,28.37,17.72,2.00,8.83,15.73,0.00,0.00,2.18,27.01,2.56,0.00,9.35,16.74,0.00,21.92,3.37,0.00,0.00,0.00,0.00,15.33,0.00,0.00,3.68,17.34,0.00,3.28,1.58,3.05,0.00,0.00,0.11
0,28.64,17.72,2.00,8.99,16.46,0.00,0.00,2.37,26.50,2.56,0.00,8.67,16.93,0.00,21.92,3.49,0.00,0.00,0.00,0.00,15.64,0.00,0.00,3.81,18.33,0.00,3.28,1.70,2.89,0.00,0.00,0.10
0,27.76,17.72,2.00,8.83,16.71,0.00,0.00,2.55,26.28,2.56,0.00,8.47,16.80,0.00,20.55,3.49,0.00,0.00,0.00,0.00,15.26,0.00,0.00,3.65,18.21,0.00,3.28,1.69,2.88,0.00,0.00,0.10
0,26.00,15.19,0.00,8.01,16.31,0.00,0.00,2.50,27.57,2.56,0.00,9.14,17.09,0.00,20.55,3.60,0.00,0.00,0.00,0.00,15.06,0.00,0.00,3.70,18.90,0.00,4.92,1.80,2.85,0.00,0.00,0.10
0,25.35,13.92,0.00,7.88,16.17,0.00,0.00,2.50,28.05,2.56,0.00,9.59,17.31,0.00,20.55,3.69,0.00,0.00,0.00,0.00,14.64,0.00,0.00,3.63,18.59,0.00,4.92,1.80,2.99,0.00,0.00,0.11
0,23.73,12.66,0.00,6.80,16.24,0.00,0.00,2.46,28.31,2.56,0.00,9.66,17.48,0.00,20.55,3.76,0.00,0.00,0.00,0.00,14.28,0.00,0.00,3.41,17.79,0.00,4.92,1.67,3.04,0.00,0.00,0.11
0,23.44,12.66,0.00,6.79,16.41,0.00,0.00,2.47,28.51,2.56,0.00,9.84,16.94,0.00,20.55,3.47,0.00,0.00,0.00,0.00,14.44,0.00,0.00,3.46,17.86,0.00,4.92,1.67,3.04,0.00,0.00,0.10
0,22.35,10.13,0.00,6.39,16.95,0.00,0.00,2.59,27.39,0.00,0.00,9.01,17.00,0.00,20.55,3.44,0.00,0.00,0.00,0.00,13.86,0.00,0.00,3.02,18.04,0.00,4.92,1.71,3.09,0.00,0.00,0.11
0,21.32,7.59,0.00,5.66,17.06,0.00,0.00,2.60,28.36,0.00,0.00,9.44,17.52,0.00,23.29,3.54,0.00,0.00,0.00,0.00,13.16,0.00,0.00,2.56,17.99,0.00,4.92,1.67,3.06,0.00,0.00,0.10
0,19.70,5.06,0.00,4.98,17.44,0.00,0.00,2.71,28.30,0.00,0.00,9.49,17.06,0.00,20.55,3.41,0.00,0.00,0.00,0.00,13.76,0.00,0.00,2.66,17.91,0.00,4.92,1.70,3.12,0.00,0.00,0.10
0,19.86,5.06,0.00,5.12,17.80,0.00,0.00,2.85,27.96,0.00,0.00,9.37,16.84,0.00,19.18,3.32,0.00,0.00,0.00,0.00,13.86,0.00,0.00,2.66,18.28,0.00,4.92,1.79,3.00,0.00,0.00,0.10
0,17.68,2.53,0.00,4.21,17.10,0.00,0.00,2.71,28.30,0.00,0.00,9.76,17.13,0.00,19.18,3.62,0.00,0.00,0.00,0.00,12.96,0.00,0.00,2.36,17.49,0.00,1.64,1.69,3.04,0.00,0.00,0.10
0,17.89,1.27,0.00,3.59,17.50,0.00,0.00,2.77,28.17,0.00,0.00,9.67,16.84,0.00,19.18,3.51,0.00,0.00,0.00,0.00,12.59,0.00,0.00,2.16,18.37,0.00,3.28,1.83,3.16,0.00,0.00,0.11
0,17.36,1.27,0.00,3.38,17.05,0.00,0.00,2.66,28.35,0.00,0.00,9.59,17.05,0.00,20.55,3.51,0.00,0.00,0.00,0.00,12.91,0.00,0.00,2.33,18.13,0.00,3.28,1.81,2.96,0.00,0.00,0.10
0,17.69,1.27,0.00,3.52,16.86,0.00,0.00,2.55,28.84,0.00,0.00,9.74,17.51,0.00,20.55,3.77,0.00,0.00,0.00,0.00,12.25,0.00,0.00,2.16,18.03,0.00,3.28,1.80,2.93,0.00,0.00,0.09
0,17.63,1.27,0.00,3.57,16.69,0.00,0.00,2.52,29.17,0.00,0.00,10.07,17.95,0.00,19.18,4.00,0.00,0.00,0.00,0.00,11.96,0.00,0.00,2.07,18.64,0.00,4.92,1.90,2.94,0.00,0.00,0.09
0,19.35,3.80,2.00,4.22,16.22,0.00,0.00,2.47,30.06,0.00,0.00,10.59,18.45,0.00,19.18,4.06,0.00,0.00,0.00,0.00,12.29,0.00,0.00,2.23,18.47,0.00,4.92,1.90,2.95,0.00,0.00,0.09
0,19.91,3.80,2.00,4.44,16.04,0.00,0.00,2.38,29.81,0.00,0.00,10.44,18.83,0.00,20.55,4.24,0.00,0.00,0.00,0.00,12.37,0.00,0.00,2.31,18.49,0.00,4.92,1.84,2.84,0.00,0.00,0.09
0,21.33,5.06,2.00,4.98,16.54,0.00,0.00,2.48,29.93,0.00,0.00,10.50,18.53,0.00,19.18,4.16,0.00,0.00,0.00,0.00,12.86,0.00,0.00,2.43,18.71,0.00,4.92,1.85,2.87,0.00,0.00,0.09
0,21.77,5.06,2.00,5.08,16.59,0.00,0.00,2.55,29.62,0.00,0.00,10.49,17.79,0.00,16.44,3.96,0.00,0.00,0.00,0.00,12.50,0.00,0.00,2.35,18.76,0.00,4.92,1.85,2.78,0.00,0.00,0.08
0,21.39,5.06,2.00,5.05,16.92,0.00,0.00,2.59,29.52,0.00,0.00,10.24,17.71,0.00,16.44,3.92,0.00,0.00,0.00,0.00,12.35,0.00,0.00,2.32,18.34,0.00,4.92,1.76,2.68,0.00,0.00,0.08
0,21.43,5.06,2.00,5.08,17.02,0.00,0.00,2.62,29.54,0.00,0.00,10.16,17.37,0.00,16.44,3.83,0.00,0.00,0.00,0.00,11.99,0.00,0.00,2.35,19.01,0.00,4.92,1.87,2.77,0.00,0.00,0.08
0,21.82,5.06,2.00,5.21,17.30,0.00,0.00,2.85,30.04,0.00,0.00,10.26,16.74,0.00,15.07,3.71,0.00,0.00,0.00,0.00,11.29,0.00,0.00,2.01,18.66,0.00,4.92,1.84,2.79,0.00,0.00,0.08
0,21.99,5.06,2.00,5.14,16.64,0.00,0.00,2.64,31.13,0.00,0.00,10.71,16.55,0.00,15.07,3.74,0.00,0.00,0.00,0.00,11.66,0.00,0.00,2.16,18.29,0.00,4.92,1.82,2.83,0.00,0.00,0.09
0,22.79,5.06,2.00,5.26,16.32,0.00,0.00,2.54,30.21,0.00,0.00,10.26,16.80,0.00,16.44,3.94,0.00,0.00,0.00,0.00,11.82,0.00,0.00,2.13,17.66,0.00,3.28,1.76,3.00,0.00,0.00,0.11
0,22.74,5.06,2.00,5.33,16.22,0.00,0.00,2.50,30.09,0.00,0.00,9.85,16.42,0.00,17.81,3.75,0.00,0.00,0.00,0.00,11.81,0.00,0.00,2.20,17.98,0.00,3.28,1.86,2.93,0.00,0.00,0.10
0,22.86,5.06,2.00,5.39,15.84,0.00,0.00,2.46,29.87,0.00,0.00,9.64,15.98,0.00,16.44,3.62,0.00,0.00,0.00,0.00,12.07,0.00,0.00,2.31,18.11,0.00,3.28,1.91,2.92,0.00,0.00,0.10
0,23.57,7.59,2.00,5.60,15.88,0.00,0.00,2.49,29.34,0.00,0.00,9.11,15.88,0.00,15.07,3.62,0.00,0.00,0.00,0.00,12.74,0.00,0.00,2.77,18.44,0.00,3.28,1.96,2.80,0.00,0.00,0.10
0,24.62,7.59,2.00,5.78,15.63,0.00,0.00,2.45,29.01,0.00,0.00,9.10,15.56,0.00,13.70,3.57,0.00,0.00,0.00,0.00,13.11,0.00,0.00,2.95,18.15,0.00,3.28,1.91,2.68,0.00,0.00,0.09
0,25.02,8.86,2.00,5.95,15.43,0.00,0.00,2.37,28.32,0.00,0.00,8.86,15.37,0.00,10.96,3.51,0.00,0.00,0.00,0.00,13.06,0.00,0.00,3.02,18.00,0.00,3.28,1.89,2.75,0.00,0.00,0.10
0,26.01,10.13,2.00,6.36,15.53,0.00,0.00,2.38,27.70,0.00,0.00,8.55,15.44,0.00,10.96,3.50,0.00,0.00,0.00,0.00,12.69,0.00,0.00,2.95,17.68,0.00,3.28,1.82,2.82,0.00,0.00,0.10
0,25.42,10.13,2.00,6.17,15.26,0.00,0.00,2.22,28.11,0.00,0.00,8.67,15.55,0.00,10.96,3.55,0.00,0.00,0.00,0.00,13.14,0.00,0.00,3.05,18.01,0.00,3.28,1.83,2.85,0.00,0.00,0.11
0,25.78,10.13,2.00,6.32,15.22,0.00,0.00,2.19,27.68,0.00,0.00,8.36,15.30,0.00,10.96,3.37,0.00,0.00,0.00,0.00,13.48,0.00,0.00,3.19,18.49,0.00,6.56,1.85,2.95,0.00,0.00,0.11
0,25.24,8.86,2.00,5.98,15.23,0.00,0.00,2.25,27.57,0.00,0.00,8.24,15.89,0.00,13.70,3.57,0.00,0.00,0.00,0.00,13.67,0.00,0.00,3.25,17.88,0.00,4.92,1.73,2.84,0.00,0.00,0.11
0,25.63,8.86,2.00,6.14,15.14,0.00,0.00,2.20,26.63,0.00,0.00,7.78,15.47,0.00,12.33,3.45,0.00,0.00,0.00,0.00,13.16,0.00,0.00,3.07,17.70,0.00,4.92,1.64,2.92,0.00,0.00,0.11
0,25.42,8.86,2.00,6.04,14.93,0.00,0.00,2.17,25.66,0.00,0.00,7.39,14.87,0.00,13.70,3.04,0.00,0.00,0.00,0.00,13.48,0.00,0.00,3.09,18.25,0.00,4.92,1.67,3.06,0.00,0.00,0.12
0,25.72,8.86,2.00,6.10,14.60,0.00,0.00,2.12,25.22,0.00,0.00,7.05,14.83,0.00,15.07,2.81,0.00,0.00,0.00,0.00,13.77,0.00,0.00,3.18,17.61,0.00,3.28,1.56,3.05,0.00,0.00,0.12
0,24.76,6.33,0.00,5.60,14.92,0.00,0.00,2.18,25.21,0.00,0.00,6.42,14.74,0.00,15.07,2.86,0.00,0.00,0.00,0.00,14.23,0.00,0.00,3.33,17.77,0.00,3.28,1.53,3.13,0.00,0.00,0.13
0,25.46,7.59,0.00,6.01,15.16,0.00,0.00,2.25,24.80,0.00,0.00,6.45,14.54,0.00,15.07,2.72,0.00,0.00,0.00,0.00,14.17,0.00,0.00,3.18,18.00,0.00,3.28,1.57,3.27,0.00,0.00,0.13
0,24.02,6.33,0.00,5.41,15.16,0.00,0.00,2.22,25.33,0.00,0.00,6.66,14.63,0.00,15.07,2.72,0.00,0.00,0.00,0.00,13.69,0.00,0.00,3.05,18.47,0.00,3.28,1.65,3.35,0.00,0.00,0.14
0,23.76,7.59,0.00,5.55,15.27,0.00,0.00,2.26,25.08,0.00,0.00,6.47,14.99,0.00,16.44,2.78,0.00,0.00,0.00,0.00,14.32,0.00,0.00,3.23,19.04,0.00,4.92,1.71,3.33,0.00,0.00,0.14
0,23.80,7.59,0.00,5.52,14.68,0.00,0.00,2.16,25.23,0.00,0.00,6.69,15.42,0.00,17.81,2.84,0.00,0.00,0.00,0.00,14.30,0.00,0.00,3.24,19.17,0.00,4.92,1.75,3.47,0.00,0.00,0.15
0,23.98,7.59,0.00,5.54,14.32,0.00,0.00,2.06,25.80,0.00,0.00,7.10,15.91,0.00,20.55,3.01,0.00,0.00,0.00,0.00,14.47,0.00,0.00,3.25,18.69,0.00,4.92,1.67,3.56,0.00,0.00,0.15
0,23.29,7.59,0.00,5.42,13.20,0.00,0.00,1.71,26.23,0.00,0.00,7.69,16.64,0.00,23.29,3.13,0.00,0.00,0.00,0.00,14.59,0.00,0.00,3.24,18.16,0.00,4.92,1.59,3.52,0.00,0.00,0.15
0,23.97,8.86,0.00,5.59,13.04,0.00,0.00,1.63,26.44,0.00,0.00,7.82,16.72,0.00,24.66,3.07,0.00,0.00,0.00,0.00,14.12,0.00,0.00,3.04,18.09,0.00,4.92,1.54,3.51,0.00,0.00,0.15
0,23.76,8.86,0.00,5.57,13.25,0.00,0.00,1.69,26.85,0.00,0.00,7.90,16.11,0.00,21.92,2.89,0.00,0.00,0.00,0.00,14.24,0.00,0.00,3.11,18.37,0.00,4.92,1.57,3.52,0.00,0.00,0.14
0,23.58,8.86,0.00,5.47,13.23,0.00,0.00,1.69,26.08,0.00,0.00,7.67,16.54,0.00,21.92,3.02,0.00,0.00,0.00,0.00,13.96,0.00,0.00,3.01,17.93,0.00,4.92,1.48,3.49,0.00,0.00,0.14
0,23.52,8.86,0.00,5.42,13.11,0.00,0.00,1.65,26.86,0.00,0.00,8.25,16.89,0.00,23.29,3.08,0.00,0.00,0.00,0.00,14.09,0.00,0.00,3.02,18.12,0.00,4.92,1.46,3.47,0.00,0.00,0.13
0,23.19,8.86,0.00,5.35,13.09,0.00,0.00,1.57,28.21,2.56,0.00,9.22,17.01,0.00,24.66,3.22,0.00,0.00,0.00,0.00,13.09,0.00,0.00,2.66,17.79,0.00,4.92,1.42,3.53,0.00,0.00,0.13
0,21.82,6.33,0.00,4.72,13.26,0.00,0.00,1.65,29.25,2.56,0.00,9.84,17.32,0.00,26.03,3.29,0.00,0.00,0.00,0.00,12.80,0.00,0.00,2.39,17.10,0.00,4.92,1.35,3.70,0.00,0.00,0.14
0,21.85,5.06,0.00,4.65,13.06,0.00,0.00,1.63,29.33,2.56,0.00,9.81,17.54,0.00,27.40,3.33,0.00,0.00,0.00,0.00,12.84,0.00,0.00,2.37,17.32,0.00,4.92,1.36,3.69,0.00,0.00,0.14
0,21.06,3.80,0.00,4.09,12.69,0.00,0.00,1.56,29.78,2.56,0.00,10.07,17.92,0.00,27.40,3.56,0.00,0.00,0.00,0.00,12.82,0.00,0.00,2.26,17.06,0.00,4.92,1.33,3.67,0.00,0.00,0.14
0,21.27,3.80,0.00,4.03,12.60,0.00,0.00,1.55,29.83,2.56,0.00,10.11,17.81,0.00,26.03,3.55,0.00,0.00,0.00,0.00,12.71,0.00,0.00,2.35,17.18,0.00,4.92,1.32,3.68,0.00,0.00,0.14
0,21.15,3.80,0.00,3.94,13.07,0.00,0.00,1.67,30.42,2.56,0.00,10.52,17.94,0.00,27.40,3.71,0.00,0.00,0.00,0.00,12.08,0.00,0.00,2.08,16.59,0.00,1.64,1.21,3.50,0.00,0.00,0.13
0,20.99,3.80,0.00,3.94,12.73,0.00,0.00,1.61,31.64,2.56,0.00,10.88,17.55,0.00,26.03,3.42,0.00,0.00,0.00,0.00,11.97,0.00,0.00,2.08,16.81,0.00,1.64,1.23,3.47,0.00,0.00,0.13
0,21.40,5.06,0.00,4.26,12.60,0.00,0.00,1.59,31.97,2.56,0.00,11.12,18.39,0.00,28.77,3.80,0.00,0.00,0.00,0.00,12.10,0.00,0.00,2.17,17.66,0.00,3.28,1.41,3.48,0.00,0.00,0.13
0,21.59,5.06,0.00,4.17,12.70,0.00,0.00,1.62,33.33,2.56,0.00,11.88,18.41,0.00,27.40,3.88,0.00,0.00,0.00,0.00,11.81,0.00,0.00,2.13,17.35,0.00,3.28,1.40,3.36,0.00,0.00,0.12
0,21.57,6.33,0.00,4.31,12.91,0.00,0.00,1.63,34.79,5.13,0.00,13.45,18.95,0.00,27.40,4.20,0.00,0.00,0.00,0.00,11.70,0.00,0.00,2.05,17.33,0.00,3.28,1.41,3.36,0.00,0.00,0.12
0,21.21,6.33,0.00,4.22,13.31,0.00,0.00,1.86,35.84,5.13,0.00,13.88,19.00,0.00,28.77,4.22,0.00,0.00,0.00,0.00,11.44,0.00,0.00,2.08,17.06,0.00,3.28,1.42,3.34,0.00,0.00,0.12
0,20.27,6.33,0.00,4.05,13.03,0.00,0.00,1.77,35.90,5.13,0.00,13.83,18.70,0.00,27.40,4.08,0.00,0.00,0.00,0.00,11.32,0.00,0.00,2.00,16.82,0.00,3.28,1.39,3.29,0.00,0.00,0.11
0,20.69,6.33,0.00,3.97,12.95,0.00,0.00,1.75,35.45,5.13,0.00,13.72,18.59,0.00,26.03,4.13,0.00,0.00,0.00,0.00,11.56,0.00,0.00,2.07,16.72,0.00,3.28,1.35,3.13,0.00,0.00,0.10
0,20.25,5.06,0.00,3.80,12.39,0.00,0.00,1.63,35.32,5.13,0.00,13.70,18.72,0.00,24.66,4.24,0.00,0.00,0.00,0.00,11.31,0.00,0.00,2.02,16.68,0.00,3.28,1.47,3.26,0.00,0.00,0.12
0,21.30,6.33,0.00,4.16,12.19,0.00,0.00,1.59,34.57,5.13,0.00,13.38,18.43,0.00,23.29,4.19,0.00,0.00,0.00,0.00,11.55,0.00,0.00,2.00,16.35,0.00,3.28,1.42,3.27,0.00,0.00,0.12
0,21.06,6.33,0.00,4.22,12.10,0.00,0.00,1.59,34.34,5.13,0.00,13.04,17.55,0.00,20.55,3.90,0.00,0.00,0.00,0.00,11.52,0.00,0.00,2.03,16.28,0.00,3.28,1.39,3.10,0.00,0.00,0.11
0,21.46,6.33,0.00,4.34,12.28,0.00,0.00,1.61,33.32,5.13,0.00,12.06,16.92,0.00,17.81,3.69,0.00,0.00,0.00,0.00,11.85,0.00,0.00,2.09,16.72,0.00,3.28,1.46,3.08,0.00,0.00,0.11
0,20.89,5.06,0.00,4.08,12.63,0.00,0.00,1.65,33.92,5.13,0.00,12.67,16.77,0.00,16.44,3.66,0.00,0.00,0.00,0.00,11.91,0.00,0.00,2.09,16.91,0.00,3.28,1.47,3.20,0.00,0.00,0.12
0,21.06,5.06,0.00,4.07,12.70,0.00,0.00,1.64,33.44,5.13,0.00,12.42,17.72,0.00,19.18,3.91,0.00,0.00,0.00,0.00,11.92,0.00,0.00,2.16,16.82,0.00,3.28,1.48,3.17,0.00,0.00,0.12
0,21.44,5.06,0.00,4.21,12.78,0.00,0.00,1.66,33.48,5.13,0.00,12.51,17.04,0.00,17.81,3.75,0.00,0.00,0.00,0.00,12.08,0.00,0.00,2.20,17.30,0.00,3.28,1.55,3.15,0.00,0.00,0.12
0,21.88,6.33,0.00,4.40,13.06,0.00,0.00,1.79,32.27,5.13,0.00,11.75,16.67,0.00,16.44,3.64,0.00,0.00,0.00,0.00,12.35,0.00,0.00,2.30,17.68,0.00,3.28,1.59,3.25,0.00,0.00,0.12
0,21.75,6.33,0.00,4.46,13.19,0.00,0.00,1.83,31.59,2.56,0.00,11.05,16.38,0.00,15.07,3.47,0.00,0.00,0.00,0.00,12.61,0.00,0.00,2.29,17.92,0.00,3.28,1.61,3.30,0.00,0.00,0.12
0,21.26,6.33,0.00,4.34,13.28,0.00,0.00,1.84,29.92,2.56,0.00,10.27,16.25,0.00,13.70,3.44,0.00,0.00,0.00,0.00,12.66,0.00,0.00,2.36,18.40,0.00,3.28,1.70,3.23,0.00,0.00,0.12
0,20.61,6.33,0.00,4.24,13.58,0.00,0.00,1.95,29.73,2.56,0.00,10.20,16.01,0.00,13.70,3.43,0.00,0.00,0.00,0.00,12.85,0.00,0.00,2.30,18.72,0.00,3.28,1.73,3.29,0.00,0.00,0.12
0,20.79,6.33,0.00,4.24,13.69,0.00,0.00,1.97,29.14,2.56,0.00,10.05,15.48,0.00,13.70,3.22,0.00,0.00,0.00,0.00,12.87,0.00,0.00,2.33,18.80,0.00,3.28,1.75,3.31,0.00,0.00,0.13
0,21.26,6.33,0.00,4.41,13.83,0.00,0.00,1.99,29.53,2.56,0.00,10.26,15.83,0.00,16.44,3.25,0.00,0.00,0.00,0.00,13.53,1.41,0.00,2.61,19.38,0.00,4.92,1.87,3.32,0.00,0.00,0.13
0,21.36,6.33,0.00,4.50,13.45,0.00,0.00,1.89,28.65,2.56,0.00,9.80,15.84,0.00,16.44,3.21,0.00,0.00,0.00,0.00,13.84,1.41,0.00,2.66,19.19,0.00,4.92,1.87,3.34,0.00,0.00,0.13
0,21.97,6.33,0.00,4.64,13.54,0.00,0.00,1.92,27.09,2.56,0.00,9.13,15.75,0.00,15.07,3.13,0.00,0.00,0.00,0.00,13.73,1.41,0.00,2.61,18.94,0.00,4.92,1.85,3.40,0.00,0.00,0.13
0,21.52,5.06,0.00,4.37,14.03,0.00,0.00,1.97,26.67,2.56,0.00,8.93,15.16,0.00,13.70,2.79,0.00,0.00,0.00,0.00,13.67,1.41,0.00,2.56,18.03,0.00,3.28,1.69,3.45,0.00,0.00,0.13
0,21.50,5.06,0.00,4.37,14.35,0.00,0.00,2.02,26.31,2.56,0.00,8.37,15.00,0.00,12.33,2.70,0.00,0.00,0.00,0.00,14.06,1.41,0.00,2.73,17.80,0.00,3.28,1.66,3.55,0.00,0.00,0.14
0,20.98,3.80,0.00,4.13,14.31,0.00,0.00,2.05,24.79,0.00,0.00,6.75,13.90,0.00,10.96,2.29,0.00,0.00,0.00,0.00,14.02,1.41,0.00,2.76,19.04,0.00,6.56,1.82,3.54,0.00,0.00,0.14
0,21.23,3.80,0.00,4.11,13.71,0.00,0.00,1.82,23.89,0.00,0.00,6.37,13.91,0.00,9.59,2.28,0.00,0.00,0.00,0.00,13.76,1.41,0.00,2.58,19.35,0.00,6.56,1.88,3.53,0.00,0.00,0.14
0,21.43,2.53,0.00,4.14,13.87,0.00,0.00,1.89,24.37,2.56,0.00,7.04,13.94,0.00,10.96,2.31,0.00,0.00,0.00,0.00,13.50,1.41,0.00,2.54,19.56,0.00,6.56,1.92,3.50,0.00,0.00,0.14
0,21.34,2.53,0.00,4.12,14.05,0.00,0.00,1.89,23.32,2.56,0.00,6.52,13.77,0.00,10.96,2.20,0.00,0.00,0.00,0.00,13.34,1.41,0.00,2.48,19.61,0.00,8.20,1.95,3.53,0.00,0.00,0.14
0,21.00,2.53,0.00,3.94,14.81,0.00,0.00,2.05,23.46,2.56,0.00,6.57,13.71,0.00,12.33,2.13,0.00,0.00,0.00,0.00,13.14,1.41,0.00,2.49,19.28,0.00,6.56,1.82,3.51,0.00,0.00,0.13
0,20.70,1.27,0.00,3.85,15.00,0.00,0.00,2.07,23.63,2.56,0.00,6.44,13.58,0.00,12.33,2.07,0.00,0.00,0.00,0.00,13.17,1.41,0.00,2.48,20.02,0.00,8.20,1.89,3.52,0.00,0.00,0.13
0,20.73,1.27,0.00,3.73,15.70,0.00,0.00,2.19,23.20,2.56,0.00,6.44,13.84,0.00,12.33,2.11,0.00,0.00,0.00,0.00,13.60,1.41,0.00,2.59,20.60,0.00,8.20,1.93,3.59,0.00,0.00,0.14
0,19.95,1.27,0.00,3.53,15.51,0.00,0.00,2.13,23.19,2.56,0.00,6.35,13.82,0.00,12.33,2.06,0.00,0.00,0.00,0.00,13.25,1.41,0.00,2.49,20.35,0.00,8.20,1.95,3.59,0.00,0.00,0.14
0,19.66,1.27,0.00,3.48,15.89,0.00,0.00,2.27,22.54,2.56,0.00,5.86,14.15,0.00,13.70,2.18,0.00,0.00,0.00,0.00,13.40,1.41,0.00,2.54,20.24,0.00,8.20,1.95,3.50,0.00,0.00,0.12
0,19.01,1.27,0.00,3.32,16.36,0.00,0.00,2.51,23.11,2.56,0.00,5.86,13.87,0.00,12.33,1.98,0.00,0.00,0.00,0.00,13.45,1.41,0.00,2.58,20.50,0.00,8.20,2.07,3.49,0.00,0.00,0.12
0,19.11,1.27,0.00,3.38,16.48,0.00,0.00,2.51,22.91,2.56,0.00,5.74,13.75,0.00,12.33,1.95,0.00,0.00,0.00,0.00,13.53,1.41,0.00,2.54,20.07,0.00,8.20,1.99,3.45,0.00,0.00,0.12
0,19.91,1.27,0.00,3.47,16.49,0.00,0.00,2.45,22.82,2.56,0.00,5.56,14.17,0.00,12.33,2.04,0.00,0.00,0.00,0.00,13.62,1.41,0.00,2.56,19.73,0.00,8.20,1.93,3.35,0.00,0.00,0.12
0,19.10,0.00,0.00,3.13,15.91,0.00,0.00,2.35,22.33,2.56,0.00,5.44,14.49,0.00,15.07,2.10,0.00,0.00,0.00,0.00,13.37,1.41,0.00,2.49,19.25,0.00,8.20,1.87,3.32,0.00,0.00,0.12
0,19.81,0.00,0.00,3.32,16.20,0.00,0.00,2.37,22.85,2.56,0.00,5.50,14.73,0.00,16.44,2.09,0.00,0.00,0.00,0.00,13.62,1.41,0.00,2.50,19.47,0.00,9.84,1.90,3.35,0.00,0.00,0.12
0,20.05,0.00,0.00,3.45,15.95,0.00,0.00,2.27,23.11,2.56,0.00,5.58,14.71,0.00,15.07,2.10,0.00,0.00,0.00,0.00,13.55,1.41,0.00,2.50,19.63,0.00,11.48,1.95,3.44,0.00,0.00,0.12
0,20.00,1.27,0.00,3.52,15.74,0.00,0.00,2.22,22.93,2.56,0.00,5.49,15.15,0.00,15.07,2.17,0.00,0.00,0.00,0.00,13.55,1.41,0.00,2.52,19.49,0.00,11.48,1.94,3.43,0.00,0.00,0.13
0,20.01,1.27,0.00,3.72,15.59,0.00,0.00,2.19,23.53,5.13,0.00,5.96,14.79,0.00,13.70,2.12,0.00,0.00,0.00,0.00,12.80,0.00,0.00,2.35,18.77,0.00,9.84,1.79,3.45,0.00,0.00,0.13
0,19.77,1.27,0.00,3.45,16.01,0.00,0.00,2.26,23.34,5.13,0.00,5.90,14.13,0.00,12.33,1.92,0.00,0.00,0.00,0.00,12.09,0.00,0.00,2.07,18.91,0.00,9.84,1.81,3.64,0.00,0.00,0.14
0,19.03,1.27,0.00,3.29,16.18,0.00,0.00,2.30,23.29,5.13,0.00,5.91,13.84,0.00,12.33,1.90,0.00,0.00,0.00,0.00,12.52,0.00,0.00,2.20,19.28,0.00,9.84,1.85,3.65,0.00,0.00,0.14
0,19.02,1.27,0.00,3.21,15.76,0.00,0.00,2.22,23.16,5.13,0.00,5.87,13.24,0.00,10.96,1.75,0.00,0.00,0.00,0.00,12.51,0.00,0.00,2.16,19.06,0.00,9.84,1.83,3.62,0.00,0.00,0.14
0,19.63,1.27,0.00,3.36,15.57,0.00,0.00,2.15,22.52,5.13,0.00,5.57,13.54,0.00,12.33,1.80,0.00,0.00,0.00,0.00,12.25,0.00,0.00,2.13,18.79,0.00,9.84,1.80,3.54,0.00,0.00,0.13
0,19.34,1.27,0.00,3.35,15.87,0.00,0.00,2.24,22.46,5.13,0.00,5.77,14.05,0.00,13.70,2.00,0.00,0.00,0.00,0.00,12.34,0.00,0.00,2.14,18.01,0.00,6.56,1.71,3.49,0.00,0.00,0.13
0,20.03,1.27,0.00,3.45,16.13,0.00,0.00,2.35,22.66,5.13,0.00,5.90,14.01,0.00,15.07,1.97,0.00,0.00,0.00,0.00,12.24,0.00,0.00,2.12,17.74,0.00,6.56,1.67,3.53,0.00,0.00,0.13
0,19.81,1.27,0.00,3.53,16.16,0.00,0.00,2.37,22.58,2.56,0.00,5.37,13.93,0.00,13.70,1.92,0.00,0.00,0.00,0.00,12.42,0.00,0.00,2.09,17.95,0.00,6.56,1.64,3.50,0.00,0.00,0.13
0,20.41,2.53,0.00,3.77,16.44,0.00,0.00,2.47,22.91,2.56,0.00,5.40,14.09,0.00,13.70,1.98,0.00,0.00,0.00,0.00,12.73,0.00,0.00,2.24,17.75,0.00,4.92,1.69,3.55,0.00,0.00,0.13
0,19.86,2.53,0.00,3.68,16.23,0.00,0.00,2.39,22.33,2.56,0.00,5.21,14.23,0.00,13.70,1.94,0.00,0.00,0.00,0.00,12.24,0.00,0.00,2.12,17.35,0.00,4.92,1.64,3.46,0.00,0.00,0.12
0,20.45,2.53,0.00,3.79,15.99,0.00,0.00,2.37,22.04,2.56,0.00,5.16,14.86,0.00,15.07,2.12,0.00,0.00,0.00,0.00,12.32,0.00,0.00,2.18,16.87,0.00,3.28,1.54,3.39,0.00,0.00,0.12
0,20.02,2.53,0.00,3.63,15.83,0.00,0.00,2.30,22.50,2.56,0.00,5.33,14.78,0.00,15.07,2.13,0.00,0.00,0.00,0.00,11.91,0.00,0.00,2.05,16.42,0.00,3.28,1.50,3.31,0.00,0.00,0.11
0,20.82,2.53,0.00,3.82,15.95,0.00,0.00,2.36,22.97,2.56,0.00,5.39,15.72,0.00,17.81,2.45,0.00,0.00,0.00,0.00,12.23,0.00,0.00,2.11,16.63,0.00,3.28,1.49,3.44,0.00,0.00,0.12
0,21.87,2.53,0.00,4.36,16.10,0.00,0.00,2.38,23.17,2.56,0.00,5.32,15.60,0.00,17.81,2.41,0.00,0.00,0.00,0.00,12.23,0.00,0.00,2.18,17.05,0.00,3.28,1.51,3.43,0.00,0.00,0.12
0,22.16,2.53,0.00,4.42,15.11,0.00,0.00,2.01,22.69,2.56,0.00,5.29,15.49,0.00,16.44,2.45,0.00,0.00,0.00,0.00,11.64,0.00,0.00,2.00,16.23,0.00,3.28,1.36,3.33,0.00,0.00,0.12
0,21.51,2.53,0.00,4.32,14.80,0.00,0.00,1.91,22.86,2.56,0.00,5.34,15.34,0.00,16.44,2.46,0.00,0.00,0.00,0.00,11.49,0.00,0.00,2.00,17.59,0.00,6.56,1.55,3.40,0.00,0.00,0.12
0,20.95,2.53,0.00,4.25,15.13,0.00,0.00,2.01,23.35,2.56,0.00,5.47,15.03,0.00,16.44,2.34,0.00,0.00,0.00,0.00,11.14,0.00,0.00,1.90,17.58,0.00,6.56,1.55,3.42,0.00,0.00,0.12
0,21.43,2.53,0.00,4.29,14.92,0.00,0.00,1.98,23.61,2.56,0.00,5.49,14.86,0.00,15.07,2.33,0.00,0.00,0.00,0.00,11.23,0.00,0.00,1.97,17.71,0.00,6.56,1.62,3.47,0.00,0.00,0.12
0,21.16,2.53,0.00,4.28,15.20,0.00,0.00,2.14,23.89,2.56,0.00,5.68,14.85,0.00,13.70,2.38,0.00,0.00,0.00,0.00,11.26,0.00,0.00,2.00,18.24,0.00,4.92,1.75,3.42,0.00,0.00,0.12
0,20.87,2.53,0.00,4.06,15.03,0.00,0.00,2.06,23.94,2.56,0.00,5.71,14.73,0.00,13.70,2.37,0.00,0.00,0.00,0.00,11.04,0.00,0.00,1.91,17.82,0.00,3.28,1.67,3.47,0.00,0.00,0.12
0,20.71,1.27,0.00,3.95,15.12,0.00,0.00,2.08,24.91,2.56,0.00,6.01,14.79,0.00,15.07,2.42,0.00,0.00,0.00,0.00,11.02,0.00,0.00,1.92,17.97,0.00,3.28,1.67,3.38,0.00,0.00,0.11
0,20.29,1.27,0.00,3.81,15.85,0.00,0.00,2.26,24.14,0.00,0.00,5.24,14.71,0.00,15.07,2.42,0.00,0.00,0.00,0.00,10.98,0.00,0.00,1.91,18.77,0.00,4.92,1.79,3.38,0.00,0.00,0.11
0,19.68,1.27,0.00,3.65,15.88,0.00,0.00,2.22,24.77,0.00,0.00,5.40,15.00,0.00,15.07,2.48,0.00,0.00,0.00,0.00,11.50,0.00,0.00,2.03,18.94,0.00,6.56,1.83,3.27,0.00,0.00,0.11
0,19.70,1.27,0.00,3.72,16.42,0.00,0.00,2.34,25.68,0.00,0.00,5.74,15.32,0.00,15.07,2.65,0.00,0.00,0.00,0.00,11.29,0.00,0.00,1.94,18.53,0.00,6.56,1.77,3.24,0.00,0.00,0.11
0,19.77,1.27,0.00,3.80,16.60,0.00,0.00,2.47,25.49,0.00,0.00,5.72,16.00,0.00,17.81,2.85,0.00,0.00,0.00,0.00,11.86,0.00,0.00,2.24,18.69,0.00,6.56,1.84,3.26,0.00,0.00,0.11
0,19.40,1.27,0.00,3.73,17.17,0.00,0.00,2.68,26.02,0.00,0.00,6.00,16.01,0.00,17.81,2.93,0.00,0.00,0.00,0.00,11.64,0.00,0.00,2.17,19.07,0.00,6.56,1.92,3.30,0.00,0.00,0.12
0,19.62,1.27,0.00,3.72,17.19,0.00,0.00,2.74,26.37,0.00,0.00,6.45,15.93,0.00,17.81,2.96,0.00,0.00,0.00,0.00,11.42,0.00,0.00,2.09,19.19,0.00,6.56,1.94,3.39,0.00,0.00,0.12
0,19.21,1.27,0.00,3.68,17.92,0.00,0.00,2.90,26.07,0.00,0.00,6.25,16.45,0.00,17.81,3.19,0.00,0.00,0.00,0.00,11.91,0.00,0.00,2.24,19.22,0.00,6.56,1.94,3.36,0.00,0.00,0.12
0,18.78,1.27,0.00,3.46,17.39,0.00,0.00,2.73,25.31,0.00,0.00,5.92,16.73,0.00,19.18,3.34,0.00,0.00,0.00,0.00,11.85,0.00,0.00,2.22,19.21,0.00,6.56,1.91,3.45,0.00,0.00,0.13
0,17.80,0.00,0.00,3.12,17.46,0.00,0.00,2.64,25.95,0.00,0.00,6.26,16.52,0.00,19.18,3.28,0.00,0.00,0.00,0.00,11.71,0.00,0.00,2.14,19.42,0.00,8.20,1.92,3.46,0.00,0.00,0.13
0,18.43,1.27,0.00,3.30,17.55,0.00,0.00,2.72,26.94,0.00,0.00,6.60,16.39,0.00,17.81,3.27,0.00,0.00,0.00,0.00,12.06,0.00,0.00,2.17,19.56,0.00,8.20,1.93,3.57,0.00,0.00,0.14
0,17.65,1.27,0.00,3.18,17.39,0.00,0.00,2.66,27.37,0.00,0.00,6.80,16.27,0.00,17.81,3.15,0.00,0.00,0.00,0.00,11.73,0.00,0.00,2.09,19.36,0.00,8.20,1.96,3.66,0.00,0.00,0.14
0,17.60,1.27,0.00,3.17,18.23,0.00,0.00,3.02,27.53,0.00,0.00,7.08,16.44,0.00,17.81,3.28,0.00,0.00,0.00,0.00,11.71,0.00,0.00,2.05,19.10,0.00,8.20,1.94,3.71,0.00,0.00,0.15
0,18.02,1.27,0.00,3.18,18.15,0.00,0.00,3.01,27.08,0.00,0.00,7.14,15.97,0.00,16.44,3.11,0.00,0.00,0.00,0.00,11.26,0.00,0.00,1.98,19.38,0.00,8.20,2.01,3.62,0.00,0.00,0.14
0,17.61,2.53,0.00,3.12,18.06,0.00,0.00,2.98,28.21,0.00,0.00,7.74,15.98,0.00,16.44,3.12,0.00,0.00,0.00,0.00,10.84,0.00,0.00,1.86,19.21,0.00,8.20,2.04,3.63,0.00,0.00,0.14
0,18.61,3.80,0.00,3.44,18.15,0.00,0.00,3.01,27.56,0.00,0.00,7.47,15.43,0.00,16.44,2.89,0.00,0.00,0.00,0.00,10.78,0.00,0.00,1.87,19.55,0.00,8.20,2.10,3.66,0.00,0.00,0.14
0,18.29,3.80,0.00,3.32,18.32,0.00,0.00,3.15,27.10,0.00,0.00,7.18,15.80,0.00,16.44,2.95,0.00,0.00,0.00,0.00,10.86,0.00,0.00,1.86,18.82,0.00,4.92,1.94,3.60,0.00,0.00,0.14
0,18.77,3.80,0.00,3.46,17.95,0.00,0.00,3.09,27.50,0.00,0.00,7.61,16.13,0.00,17.81,3.00,0.00,0.00,0.00,0.00,11.25,0.00,0.00,1.94,19.00,0.00,4.92,1.97,3.55,0.00,0.00,0.14
0,18.34,3.80,0.00,3.42,18.09,0.00,0.00,3.14,27.80,0.00,0.00,7.93,15.72,0.00,16.44,2.94,0.00,0.00,0.00,0.00,11.16,0.00,0.00,1.94,18.79,0.00,4.92,1.93,3.49,0.00,0.00,0.14
0,17.72,3.80,0.00,3.26,17.94,0.00,0.00,3.06,27.36,0.00,0.00,7.85,16.47,0.00,17.81,3.16,0.00,0.00,0.00,0.00,11.19,0.00,0.00,1.96,18.47,0.00,4.92,1.79,3.47,0.00,0.00,0.13
0,17.86,3.80,0.00,3.31,17.92,0.00,0.00,3.11,27.77,0.00,0.00,8.03,16.64,0.00,19.18,3.26,0.00,0.00,0.00,0.00,11.24,0.00,0.00,1.92,17.82,0.00,4.92,1.69,3.38,0.00,0.00,0.13
0,17.97,3.80,0.00,3.39,18.16,0.00,0.00,3.19,27.56,0.00,0.00,8.15,16.43,0.00,17.81,3.19,0.00,0.00,0.00,0.00,10.88,0.00,0.00,1.87,17.71,0.00,4.92,1.70,3.41,0.00,0.00,0.13
0,17.78,3.80,0.00,3.25,17.98,0.00,0.00,3.20,28.78,0.00,0.00,9.37,16.53,0.00,16.44,3.19,0.00,0.00,0.00,0.00,10.77,0.00,0.00,1.84,17.52,0.00,3.28,1.64,3.41,0.00,0.00,0.13
0,18.53,3.80,0.00,3.61,18.13,0.00,0.00,3.27,29.45,0.00,0.00,10.18,16.98,0.00,16.44,3.53,0.00,0.00,0.00,0.00,10.49,0.00,0.00,1.73,16.96,0.00,1.64,1.58,3.36,0.00,0.00,0.12
0,18.57,3.80,0.00,3.56,17.76,0.00,0.00,3.25,29.39,0.00,0.00,10.59,17.23,0.00,16.44,3.62,0.00,0.00,0.00,0.00,10.62,0.00,0.00,1.73,17.05,0.00,1.64,1.60,3.36,0.00,0.00,0.12
0,18.68,3.80,0.00,3.58,17.10,0.00,0.00,3.05,29.94,0.00,0.00,10.78,17.04,0.00,15.07,3.62,0.00,0.00,0.00,0.00,10.14,0.00,0.00,1.51,16.95,0.00,1.64,1.55,3.29,0.00,0.00,0.12
0,18.80,3.80,0.00,3.58,16.65,0.00,0.00,2.88,31.07,0.00,0.00,11.45,17.09,0.00,15.07,3.70,0.00,0.00,0.00,0.00,10.24,0.00,0.00,1.49,17.46,0.00,3.28,1.57,3.28,0.00,0.00,0.12
0,18.54,3.80,0.00,3.58,16.73,0.00,0.00,2.89,32.07,2.56,0.00,12.18,16.94,0.00,15.07,3.60,0.00,0.00,0.00,0.00,10.34,0.00,0.00,1.47,17.54,0.00,3.28,1.57,3.18,0.00,0.00,0.11
0,18.31,3.80,0.00,3.40,16.22,0.00,0.00,2.76,33.37,2.56,0.00,13.28,16.51,0.00,15.07,3.38,0.00,0.00,0.00,0.00,10.27,0.00,0.00,1.42,17.64,0.00,3.28,1.58,3.21,0.00,0.00,0.11
0,18.67,3.80,0.00,3.53,16.25,0.00,0.00,2.75,34.49,5.13,0.00,14.48,16.32,0.00,15.07,3.30,0.00,0.00,0.00,0.00,10.22,0.00,0.00,1.41,17.68,0.00,3.28,1.58,3.20,0.00,0.00,0.11
0,18.35,3.80,0.00,3.46,16.48,0.00,0.00,2.89,34.69,5.13,0.00,14.46,16.22,0.00,15.07,3.31,0.00,0.00,0.00,0.00,10.43,0.00,0.00,1.47,17.30,0.00,1.64,1.59,3.25,0.00,0.00,0.11
0,18.29,2.53,0.00,3.46,16.11,0.00,0.00,2.79,33.87,5.13,0.00,14.13,16.08,0.00,15.07,3.31,0.00,0.00,0.00,0.00,10.44,0.00,0.00,1.45,16.91,0.00,1.64,1.54,3.22,0.00,0.00,0.12
0,18.42,2.53,0.00,3.48,15.94,0.00,0.00,2.80,33.78,5.13,0.00,14.17,16.33,0.00,16.44,3.43,0.00,0.00,0.00,0.00,10.32,0.00,0.00,1.51,17.38,0.00,1.64,1.57,3.23,0.00,0.00,0.12
0,18.75,2.53,0.00,3.47,15.25,0.00,0.00,2.53,33.85,5.13,0.00,14.18,16.13,0.00,16.44,3.33,0.00,0.00,0.00,0.00,10.66,0.00,0.00,1.53,17.79,0.00,1.64,1.58,3.16,0.00,0.00,0.11
0,18.45,3.80,0.00,3.54,14.89,0.00,0.00,2.41,34.65,7.69,0.00,14.62,16.28,0.00,16.44,3.44,0.00,0.00,0.00,0.00,10.63,0.00,0.00,1.54,17.26,0.00,1.64,1.53,3.18,0.00,0.00,0.12
0,17.81,2.53,0.00,3.19,15.00,0.00,0.00,2.49,33.40,7.69,0.00,13.91,16.13,0.00,15.07,3.42,0.00,0.00,0.00,0.00,10.87,0.00,0.00,1.62,17.03,0.00,1.64,1.41,3.17,0.00,0.00,0.11
0,17.13,1.27,0.00,2.85,15.09,0.00,0.00,2.48,33.48,7.69,0.00,13.99,16.31,0.00,15.07,3.51,0.00,0.00,0.00,0.00,11.14,0.00,0.00,1.72,17.19,0.00,1.64,1.42,3.20,0.00,0.00,0.12
0,17.49,2.53,0.00,3.21,14.74,0.00,0.00,2.34,34.63,10.26,0.00,14.87,17.25,0.00,16.44,3.97,0.00,0.00,0.00,0.00,11.38,0.00,0.00,1.87,16.63,0.00,1.64,1.36,3.23,0.00,0.00,0.12
0,17.31,2.53,0.00,3.09,14.68,0.00,0.00,2.34,34.52,10.26,0.00,14.76,17.33,0.00,15.07,4.07,0.00,0.00,0.00,0.00,11.12,0.00,0.00,1.82,16.74,0.00,1.64,1.42,3.32,0.00,0.00,0.12
0,17.80,2.53,0.00,3.24,14.61,0.00,0.00,2.33,34.58,12.82,0.00,15.29,18.39,0.00,16.44,4.56,0.00,0.00,0.00,0.00,11.08,0.00,0.00,1.73,16.81,0.00,1.64,1.44,3.27,0.00,0.00,0.12
0,18.40,2.53,0.00,3.39,14.94,0.00,0.00,2.33,36.60,15.38,0.00,16.81,18.74,0.00,17.81,4.84,0.00,0.00,0.00,0.00,11.21,0.00,0.00,1.78,16.41,0.00,1.64,1.39,3.28,0.00,0.00,0.12
0,19.91,5.06,2.00,3.98,14.63,0.00,0.00,2.21,37.02,17.95,0.00,17.56,18.68,0.00,17.81,4.78,0.00,0.00,0.00,0.00,11.66,0.00,0.00,1.97,16.97,0.00,3.28,1.46,3.32,0.00,0.00,0.12
0,20.27,6.33,2.00,4.18,14.96,0.00,0.00,2.26,38.24,17.95,0.00,18.25,18.53,0.00,17.81,4.74,0.00,0.00,0.00,0.00,11.43,0.00,0.00,1.91,17.06,0.00,3.28,1.55,3.18,0.00,0.00,0.11
0,20.86,6.33,2.00,4.31,14.77,0.00,0.00,2.16,37.06,17.95,0.00,17.12,18.44,0.00,19.18,4.68,0.00,0.00,0.00,0.00,11.45,0.00,0.00,1.88,16.66,0.00,3.28,1.50,3.25,0.00,0.00,0.11
0,19.77,6.33,2.00,4.00,14.62,0.00,0.00,2.14,36.78,17.95,0.00,16.57,18.03,0.00,19.18,4.35,0.00,0.00,0.00,0.00,11.66,0.00,0.00,1.97,16.48,0.00,3.28,1.47,3.26,0.00,0.00,0.12
0,20.12,7.59,2.00,4.24,14.48,0.00,0.00,2.05,36.89,17.95,0.00,16.03,18.39,0.00,20.55,4.39,0.00,0.00,0.00,0.00,12.15,0.00,0.00,2.18,16.79,0.00,3.28,1.53,3.28,0.00,0.00,0.11
0,21.41,8.86,2.00,4.68,14.85,0.00,0.00,2.14,36.74,17.95,0.00,15.89,17.90,0.00,19.18,4.16,0.00,0.00,0.00,0.00,12.23,0.00,0.00,2.22,16.99,0.00,3.28,1.58,3.30,0.00,0.00,0.11
0,22.53,11.39,2.00,5.03,14.68,0.00,0.00,2.13,35.44,17.95,0.00,14.93,17.53,0.00,17.81,3.98,0.00,0.00,0.00,0.00,12.30,0.00,0.00,2.24,16.82,0.00,1.64,1.55,3.31,0.00,0.00,0.11
0,22.61,11.39,2.00,5.03,14.61,0.00,0.00,2.10,34.36,15.38,0.00,13.95,17.38,0.00,17.81,3.92,0.00,0.00,0.00,0.00,12.23,0.00,0.00,2.34,17.11,0.00,1.64,1.67,3.36,0.00,0.00,0.12
0,23.27,11.39,2.00,5.19,14.45,0.00,0.00,2.16,33.19,15.38,0.00,12.72,17.33,0.00,16.44,3.90,0.00,0.00,0.00,0.00,12.10,0.00,0.00,2.36,16.98,0.00,1.64,1.66,3.26,0.00,0.00,0.11
0,23.16,11.39,2.00,5.16,14.85,0.00,0.00,2.24,32.13,12.82,0.00,11.48,17.86,0.00,16.44,4.16,0.00,0.00,0.00,0.00,12.20,0.00,0.00,2.38,16.81,0.00,1.64,1.67,3.15,0.00,0.00,0.10
0,23.81,11.39,2.00,5.41,14.66,0.00,0.00,2.11,31.88,12.82,0.00,11.80,18.84,0.00,19.18,4.69,0.00,0.00,0.00,0.00,11.95,0.00,0.00,2.38,16.66,0.00,1.64,1.61,3.05,0.00,0.00,0.10
0,23.73,11.39,2.00,5.38,15.32,0.00,0.00,2.29,32.67,12.82,0.00,12.30,18.95,0.00,19.18,4.71,0.00,0.00,0.00,0.00,12.05,0.00,0.00,2.39,16.92,0.00,1.64,1.63,3.06,0.00,0.00,0.09
0,24.11,12.66,2.00,5.63,15.41,0.00,0.00,2.32,32.81,12.82,0.00,12.55,18.45,0.00,16.44,4.60,0.00,0.00,0.00,0.00,11.86,0.00,0.00,2.31,17.03,0.00,1.64,1.66,3.04,0.00,0.00,0.10
0,24.36,12.66,2.00,5.62,15.31,0.00,0.00,2.28,32.87,12.82,0.00,12.52,18.11,0.00,16.44,4.52,0.00,0.00,0.00,0.00,12.11,0.00,0.00,2.35,17.04,0.00,1.64,1.67,3.02,0.00,0.00,0.09
0,24.04,11.39,2.00,5.49,15.25,0.00,0.00,2.28,32.49,10.26,0.00,12.21,17.79,0.00,15.07,4.33,0.00,0.00,0.00,0.00,12.38,0.00,0.00,2.42,17.55,0.00,1.64,1.69,3.00,0.00,0.00,0.09
0,24.68,11.39,2.00,5.57,15.55,0.00,0.00,2.40,34.67,10.26,0.00,13.46,18.31,0.00,16.44,4.48,0.00,0.00,0.00,0.00,12.51,0.00,0.00,2.44,17.14,0.00,1.64,1.67,2.98,0.00,0.00,0.09
0,24.62,11.39,2.00,5.59,15.95,0.00,0.00,2.50,35.62,10.26,0.00,13.92,18.39,0.00,17.81,4.54,0.00,0.00,0.00,0.00,12.40,0.00,0.00,2.33,17.04,0.00,1.64,1.65,2.95,0.00,0.00,0.09
0,24.20,10.13,2.00,5.27,16.32,0.00,0.00,2.65,34.87,7.69,0.00,13.44,17.20,0.00,16.44,4.02,0.00,0.00,0.00,0.00,12.30,0.00,0.00,2.21,17.24,0.00,3.28,1.65,3.04,0.00,0.00,0.09
0,23.99,10.13,2.00,5.14,16.24,0.00,0.00,2.63,34.44,7.69,0.00,13.15,17.09,0.00,16.44,4.02,0.00,0.00,0.00,0.00,12.42,0.00,0.00,2.21,17.49,0.00,3.28,1.67,3.00,0.00,0.00,0.09
0,23.47,10.13,2.00,4.99,16.67,0.00,0.00,2.74,33.77,5.13,0.00,12.51,15.79,0.00,15.07,3.61,0.00,0.00,0.00,0.00,12.48,0.00,0.00,2.23,17.44,0.00,3.28,1.64,2.97,0.00,0.00,0.09
0,23.65,10.13,2.00,5.00,16.56,0.00,0.00,2.78,32.49,2.56,0.00,11.37,15.13,0.00,13.70,3.21,0.00,0.00,0.00,0.00,12.16,0.00,0.00,2.15,18.05,0.00,3.28,1.78,3.04,0.00,0.00,0.09
0,23.07,8.86,0.00,4.79,16.60,0.00,0.00,2.83,31.71,0.00,0.00,10.46,15.47,0.00,13.70,3.40,0.00,0.00,0.00,0.00,12.27,0.00,0.00,2.09,18.35,0.00,3.28,1.90,3.09,0.00,0.00,0.10
0,24.61,10.13,0.00,6.08,16.11,0.00,0.00,2.74,30.77,0.00,0.00,9.74,15.39,0.00,13.70,3.39,0.00,0.00,0.00,0.00,12.91,0.00,0.00,2.41,18.15,0.00,3.28,1.85,3.22,0.00,0.00,0.10
0,24.14,10.13,0.00,6.01,16.35,0.00,0.00,2.81,30.31,0.00,0.00,9.38,15.33,0.00,12.33,3.36,0.00,0.00,0.00,0.00,13.52,0.00,0.00,2.56,18.71,0.00,3.28,1.97,3.16,0.00,0.00,0.10
0,25.36,10.13,0.00,6.45,16.34,0.00,0.00,2.87,29.39,0.00,0.00,9.10,15.32,0.00,12.33,3.34,0.00,0.00,0.00,0.00,13.20,0.00,0.00,2.48,18.89,0.00,3.28,2.02,3.09,0.00,0.00,0.10
0,26.40,12.66,0.00,6.77,16.76,0.00,0.00,2.92,28.73,0.00,0.00,9.07,14.90,0.00,12.33,3.16,0.00,0.00,0.00,0.00,13.09,0.00,0.00,2.49,19.80,0.00,4.92,2.20,3.11,0.00,0.00,0.10
0,25.52,10.13,0.00,6.35,16.89,0.00,0.00,2.93,29.09,0.00,0.00,9.33,14.80,0.00,12.33,3.13,0.00,0.00,0.00,0.00,13.46,0.00,0.00,2.61,20.21,0.00,8.20,2.27,3.04,0.00,0.00,0.09
0,25.62,10.13,0.00,6.61,17.20,0.00,0.00,2.94,28.88,0.00,0.00,9.35,14.78,0.00,12.33,3.08,0.00,0.00,0.00,0.00,13.51,0.00,0.00,2.64,20.46,0.00,9.84,2.29,3.07,0.00,0.00,0.10
0,25.49,8.86,0.00,6.60,17.20,0.00,0.00,3.00,29.25,0.00,0.00,9.56,14.61,0.00,10.96,3.06,0.00,0.00,0.00,0.00,13.68,0.00,0.00,2.62,20.07,0.00,9.84,2.20,3.22,0.00,0.00,0.11
0,25.21,8.86,0.00,6.58,16.54,0.00,0.00,2.74,29.37,0.00,0.00,9.62,14.76,0.00,10.96,3.04,0.00,0.00,0.00,0.00,13.75,0.00,0.00,2.62,20.80,0.00,11.48,2.36,3.20,0.00,0.00,0.11
0,26.07,11.39,0.00,7.17,16.78,0.00,0.00,2.83,29.27,0.00,0.00,9.64,14.10,0.00,9.59,2.75,0.00,0.00,0.00,0.00,14.51,0.00,0.00,2.78,20.62,0.00,11.48,2.32,3.26,0.00,0.00,0.11
0,27.09,13.92,0.00,8.50,16.43,0.00,0.00,2.86,28.99,0.00,0.00,9.18,13.04,0.00,8.22,2.20,0.00,0.00,0.00,0.00,14.55,0.00,0.00,2.83,20.27,0.00,11.48,2.27,3.25,0.00,0.00,0.11
1,27.68,15.19,0.00,8.69,15.71,0.00,0.00,2.66,28.75,0.00,0.00,8.92,13.39,0.00,9.59,2.27,0.00,0.00,0.00,0.00,14.93,0.00,0.00,3.06,20.17,0.00,11.48,2.25,3.24,0.00,0.00,0.11
1,27.60,13.92,0.00,8.43,16.11,0.00,0.00,2.76,28.85,0.00,0.00,8.78,13.56,0.00,9.59,2.37,0.00,0.00,0.00,0.00,14.92,0.00,0.00,3.06,20.50,0.00,11.48,2.28,3.13,0.00,0.00,0.10
1,31.31,20.25,4.00,10.37,16.06,0.00,0.00,2.75,29.20,0.00,0.00,9.07,13.49,0.00,9.59,2.40,0.00,0.00,0.00,0.00,15.49,0.00,0.00,3.37,20.20,0.00,11.48,2.25,3.43,0.00,0.00,0.13
1,37.05,27.85,14.00,13.63,15.76,0.00,0.00,2.70,29.03,0.00,0.00,8.82,13.24,0.00,9.59,2.35,0.00,0.00,0.00,0.00,15.36,0.00,0.00,3.43,19.77,0.00,11.48,2.20,3.56,0.00,0.00,0.14
1,38.46,29.11,16.00,15.27,15.92,0.00,0.00,2.65,27.84,0.00,0.00,7.85,13.76,0.00,13.70,2.39,0.00,0.00,0.00,0.00,15.98,0.00,0.00,3.73,20.33,0.00,11.48,2.26,3.60,0.00,0.00,0.15
1,40.94,31.65,20.00,16.75,15.54,0.00,0.00,2.60,26.84,0.00,0.00,7.42,14.94,0.00,16.44,2.86,0.00,0.00,0.00,0.00,16.58,1.41,0.00,4.14,20.83,0.00,11.48,2.31,3.81,0.00,0.00,0.16
1,45.22,36.71,26.00,19.84,15.65,0.00,0.00,2.58,27.10,0.00,0.00,7.27,18.46,4.88,19.18,5.07,0.00,0.00,0.00,0.00,18.16,4.23,1.96,5.28,20.76,0.00,11.48,2.30,3.76,0.00,0.00,0.15
1,48.02,43.04,30.00,21.18,15.84,0.00,0.00,2.58,28.03,2.56,0.00,7.96,20.17,4.88,24.66,6.59,0.00,0.00,0.00,0.00,18.53,4.23,1.96,5.50,20.53,0.00,11.48,2.27,4.19,0.00,0.00,0.24
1,49.90,46.84,34.00,22.23,16.79,2.22,2.33,3.32,28.61,2.56,0.00,7.91,25.12,9.76,28.77,9.91,0.00,0.00,0.00,0.00,19.58,4.23,1.96,6.12,21.87,0.00,14.75,2.54,4.98,0.00,0.00,0.37
1,51.31,49.37,34.00,22.66,17.74,2.22,2.33,3.75,28.06,2.56,0.00,7.72,26.71,9.76,31.51,10.75,0.00,0.00,0.00,0.00,20.41,4.23,1.96,6.59,21.84,0.00,14.75,2.49,5.36,0.00,0.00,0.44
1,54.06,51.90,38.00,24.84,18.67,2.22,2.33,3.88,28.57,2.56,0.00,7.88,29.60,14.63,35.62,12.52,0.00,0.00,0.00,0.00,20.45,4.23,1.96,6.58,22.33,0.00,18.03,2.48,5.80,0.00,0.00,0.49
1,56.84,55.70,44.00,27.45,19.01,2.22,2.33,4.21,28.88,2.56,0.00,7.84,32.52,19.51,39.73,15.06,0.00,0.00,0.00,0.00,20.65,4.23,1.96,6.45,22.54,0.00,19.67,2.52,5.92,0.00,0.00,0.52
1,58.27,56.96,48.00,28.96,18.58,2.22,2.33,4.14,29.80,2.56,0.00,8.20,32.94,19.51,42.47,15.23,0.00,0.00,0.00,0.00,21.01,5.63,1.96,6.91,22.27,0.00,19.67,2.41,5.93,0.00,0.00,0.52
1,58.64,58.23,48.00,29.44,19.10,2.22,2.33,4.21,29.68,2.56,0.00,8.28,33.67,19.51,45.21,15.42,0.00,0.00,0.00,0.00,21.15,5.63,1.96,7.04,22.62,0.00,22.95,2.41,5.91,0.00,0.00,0.52
1,60.63,62.03,48.00,30.30,19.03,2.22,2.33,4.24,29.44,2.56,0.00,8.09,36.01,21.95,49.32,16.48,0.00,0.00,0.00,0.00,21.16,5.63,1.96,7.07,22.60,0.00,22.95,2.47,5.93,0.00,0.00,0.51
1,61.96,63.29,50.00,32.80,19.46,2.22,2.33,4.54,29.78,2.56,0.00,8.44,38.12,21.95,52.05,18.72,0.00,0.00,0.00,0.00,21.62,5.63,1.96,7.25,22.59,0.00,21.31,2.64,6.10,0.00,0.00,0.54
1,63.18,64.56,50.00,34.18,19.28,2.22,2.33,4.45,29.97,2.56,0.00,8.56,39.05,21.95,56.16,19.30,0.00,0.00,0.00,0.00,22.35,7.04,1.96,7.90,22.69,0.00,19.67,2.65,6.04,0.00,0.00,0.53
1,64.36,65.82,50.00,35.08,19.48,2.22,2.33,4.48,29.25,2.56,0.00,8.45,39.99,21.95,58.90,19.63,0.00,0.00,0.00,0.00,22.30,7.04,1.96,7.92,22.52,0.00,19.67,2.62,5.91,0.00,0.00,0.52
1,66.04,68.35,50.00,35.91,20.30,2.22,2.33,4.71,28.86,2.56,0.00,8.22,41.78,24.39,63.01,20.65,0.00,0.00,0.00,0.00,23.16,8.45,1.96,8.34,21.68,0.00,18.03,2.47,6.32,0.00,0.00,0.55
1,65.42,67.09,50.00,36.19,20.31,2.22,2.33,4.65,29.05,2.56,0.00,8.25,43.47,24.39,67.12,21.61,0.00,0.00,0.00,0.00,23.77,8.45,1.96,8.96,21.70,0.00,18.03,2.47,6.49,0.00,0.00,0.57
1,64.67,65.82,52.00,35.16,20.43,2.22,2.33,4.67,30.02,2.56,0.00,8.61,44.78,26.83,68.49,22.63,0.00,0.00,0.00,0.00,24.36,9.86,1.96,9.31,23.33,0.00,22.95,2.88,6.85,0.00,0.00,0.61
1,67.41,68.35,56.00,37.99,20.74,2.22,2.33,4.70,29.65,2.56,0.00,8.59,45.45,26.83,69.86,22.86,0.00,0.00,0.00,0.00,24.50,9.86,1.96,9.27,23.87,0.00,22.95,2.97,6.90,0.00,0.00,0.63
1,68.95,72.15,56.00,38.65,20.90,2.22,2.33,4.67,29.09,2.56,0.00,8.18,45.52,26.83,69.86,22.72,0.00,0.00,0.00,0.00,25.73,9.86,1.96,9.83,24.21,0.00,24.59,3.01,7.04,0.00,0.00,0.63
1,67.20,70.89,52.00,37.77,21.19,2.22,2.33,4.80,29.29,2.56,0.00,8.10,45.95,26.83,72.60,22.90,0.00,0.00,0.00,0.00,25.19,9.86,1.96,9.60,24.39,0.00,26.23,3.07,6.88,0.00,0.00,0.61
1,63.18,64.56,42.00,35.81,21.40,2.22,2.33,4.83,28.58,2.56,0.00,7.90,47.05,26.83,75.34,23.10,0.00,0.00,0.00,0.00,25.49,9.86,1.96,9.76,24.75,0.00,26.23,3.15,6.85,0.00,0.00,0.61
1,61.79,64.56,40.00,34.26,21.39,2.22,2.33,4.84,29.31,2.56,0.00,8.33,47.61,26.83,73.97,23.50,0.00,0.00,0.00,0.00,25.19,9.86,1.96,9.46,24.75,0.00,26.23,3.13,6.71,0.00,0.00,0.60
1,61.32,65.82,38.00,33.78,21.43,2.22,2.33,4.84,30.43,5.13,0.00,9.33,48.43,29.27,73.97,24.30,0.00,0.00,0.00,0.00,25.66,8.45,1.96,9.60,24.42,0.00,26.23,3.10,6.55,0.00,0.00,0.59
1,57.35,60.76,30.00,31.07,21.61,2.22,2.33,4.77,30.90,5.13,0.00,9.51,46.62,26.83,72.60,23.99,0.00,0.00,0.00,0.00,25.32,8.45,0.00,9.29,24.36,0.00,24.59,3.14,6.63,0.00,0.00,0.60
1,56.49,56.96,28.00,30.14,21.31,2.22,2.33,4.67,30.44,2.56,0.00,9.02,46.43,26.83,72.60,22.16,0.00,0.00,0.00,0.00,26.17,8.45,0.00,9.96,24.83,0.00,24.59,3.15,6.57,0.00,0.00,0.62
1,55.76,54.43,24.00,30.52,19.85,0.00,0.00,3.92,29.52,2.56,0.00,8.73,41.80,21.95,67.12,19.10,0.00,0.00,0.00,0.00,25.54,8.45,0.00,9.59,24.04,0.00,22.95,2.99,5.89,0.00,0.00,0.45
1,56.01,54.43,24.00,30.84,18.96,0.00,0.00,3.39,29.77,2.56,0.00,8.85,40.75,21.95,65.75,17.79,0.00,0.00,0.00,0.00,24.90,8.45,0.00,9.15,22.86,0.00,21.31,2.79,5.49,0.00,0.00,0.38
1,54.66,53.16,22.00,29.63,18.55,0.00,0.00,3.31,29.13,2.56,0.00,8.39,39.26,21.95,63.01,16.99,0.00,0.00,0.00,0.00,24.96,8.45,0.00,9.15,22.46,0.00,18.03,2.77,5.14,0.00,0.00,0.33
1,52.08,50.63,16.00,26.92,17.37,0.00,0.00,2.75,29.01,2.56,0.00,8.19,34.85,12.20,60.27,13.34,0.00,0.00,0.00,0.00,25.65,9.86,0.00,9.85,21.65,0.00,16.39,2.63,4.71,0.00,0.00,0.27
1,49.91,49.37,10.00,25.44,17.86,0.00,0.00,2.85,29.42,2.56,0.00,8.45,36.21,12.20,63.01,13.77,0.00,0.00,0.00,0.00,25.06,9.86,0.00,9.44,21.70,0.00,16.39,2.64,4.85,0.00,0.00,0.28
1,50.13,49.37,14.00,25.41,16.66,0.00,0.00,2.56,29.45,2.56,0.00,8.41,36.36,12.20,63.01,13.91,0.00,0.00,0.00,0.00,24.71,8.45,0.00,9.16,20.92,0.00,13.11,2.58,4.85,0.00,0.00,0.28
1,48.98,46.84,14.00,24.42,16.43,0.00,0.00,2.53,30.46,2.56,0.00,8.53,35.61,9.76,60.27,13.94,0.00,0.00,0.00,0.00,25.24,8.45,0.00,9.22,20.28,0.00,11.48,2.43,4.86,0.00,0.00,0.28
1,46.48,41.77,12.00,21.72,16.09,0.00,0.00,2.26,30.59,2.56,0.00,8.40,33.04,9.76,58.90,11.04,0.00,0.00,0.00,0.00,25.02,9.86,0.00,9.37,19.87,0.00,9.84,2.13,4.66,0.00,0.00,0.26
1,47.35,44.30,14.00,21.66,15.79,0.00,0.00,2.20,31.95,2.56,0.00,8.84,33.85,9.76,60.27,11.32,0.00,0.00,0.00,0.00,24.29,8.45,0.00,8.59,19.28,0.00,9.84,2.05,4.67,0.00,0.00,0.26
1,46.56,44.30,14.00,21.59,15.18,0.00,0.00,2.06,31.76,2.56,0.00,8.70,33.31,9.76,58.90,10.89,0.00,0.00,0.00,0.00,24.02,8.45,0.00,8.57,19.83,0.00,11.48,2.22,4.69,0.00,0.00,0.26
1,46.55,44.30,14.00,21.24,14.77,0.00,0.00,1.94,32.21,2.56,0.00,8.86,33.33,9.76,58.90,11.01,0.00,0.00,0.00,0.00,24.51,9.86,0.00,8.72,20.40,0.00,13.11,2.33,4.51,0.00,0.00,0.25
1,47.47,45.57,16.00,21.35,14.51,0.00,0.00,1.88,32.31,2.56,0.00,9.10,30.48,7.32,54.79,9.25,0.00,0.00,0.00,0.00,23.12,8.45,0.00,7.90,20.72,0.00,13.11,2.34,4.32,0.00,0.00,0.23
1,48.02,45.57,16.00,21.89,13.92,0.00,0.00,1.74,33.27,2.56,0.00,9.59,30.15,7.32,54.79,9.13,0.00,0.00,0.00,0.00,23.29,9.86,0.00,8.07,20.16,0.00,8.20,2.15,3.97,0.00,0.00,0.20
1,45.18,41.77,12.00,20.04,14.38,0.00,0.00,1.97,34.13,2.56,0.00,10.49,28.71,4.88,50.68,8.01,0.00,0.00,0.00,0.00,23.31,9.86,0.00,8.23,19.64,0.00,8.20,1.95,3.81,0.00,0.00,0.17
1,44.18,39.24,12.00,19.42,14.27,0.00,0.00,2.02,34.39,2.56,0.00,10.84,28.70,4.88,52.05,8.06,0.00,0.00,0.00,0.00,22.15,9.86,0.00,7.76,19.15,0.00,6.56,1.87,3.90,0.00,0.00,0.17
1,42.71,36.71,12.00,18.86,13.86,0.00,0.00,1.91,33.95,2.56,0.00,10.78,29.07,4.88,53.42,8.11,0.00,0.00,0.00,0.00,21.77,9.86,0.00,7.52,18.95,0.00,4.92,1.84,3.75,0.00,0.00,0.16
1,41.55,35.44,12.00,18.13,13.93,0.00,0.00,1.93,34.88,2.56,0.00,11.21,29.35,4.88,53.42,8.22,0.00,0.00,0.00,0.00,21.38,9.86,0.00,7.33,18.78,0.00,4.92,1.80,3.80,0.00,0.00,0.17
1,42.50,36.71,12.00,18.79,14.41,0.00,0.00,2.10,35.80,2.56,0.00,12.07,28.67,4.88,50.68,8.02,0.00,0.00,0.00,0.00,22.11,9.86,0.00,7.64,18.55,0.00,4.92,1.78,3.90,0.00,0.00,0.18
1,43.18,39.24,12.00,19.34,14.07,0.00,0.00,2.08,36.29,2.56,0.00,11.97,26.90,2.44,46.58,6.92,0.00,0.00,0.00,0.00,21.65,9.86,0.00,7.48,19.15,0.00,6.56,1.87,3.84,0.00,0.00,0.17
1,42.81,37.97,12.00,19.23,14.37,0.00,0.00,2.10,36.23,2.56,0.00,12.20,26.35,2.44,45.21,6.70,0.00,0.00,0.00,0.00,20.35,8.45,0.00,6.74,19.23,0.00,6.56,1.87,3.77,0.00,0.00,0.16
1,42.62,40.51,10.00,19.50,14.35,0.00,0.00,2.18,36.37,2.56,0.00,12.48,24.19,0.00,41.10,5.53,0.00,0.00,0.00,0.00,19.93,7.04,0.00,6.28,19.10,0.00,6.56,1.84,3.58,0.00,0.00,0.14
1,41.24,37.97,10.00,17.79,14.24,0.00,0.00,2.20,36.87,2.56,0.00,12.90,24.45,0.00,42.47,5.66,0.00,0.00,0.00,0.00,20.02,7.04,0.00,6.06,18.98,0.00,6.56,1.88,3.42,0.00,0.00,0.13
1,44.40,40.51,12.00,19.53,14.39,0.00,0.00,2.20,37.20,2.56,0.00,13.00,24.05,0.00,43.84,5.48,0.00,0.00,0.00,0.00,22.03,11.27,0.00,7.69,19.30,0.00,6.56,1.88,3.23,0.00,0.00,0.12
1,44.90,41.77,16.00,20.08,14.43,0.00,0.00,2.20,37.64,2.56,0.00,13.28,23.95,0.00,43.84,5.49,0.00,0.00,0.00,0.00,22.24,12.68,0.00,7.87,19.28,0.00,6.56,1.88,3.31,0.00,0.00,0.12
1,43.94,40.51,16.00,19.94,14.53,0.00,0.00,2.24,37.83,2.56,0.00,13.84,24.05,0.00,42.47,5.68,0.00,0.00,0.00,0.00,21.41,11.27,0.00,7.75,19.31,0.00,4.92,1.89,3.35,0.00,0.00,0.12
1,44.85,43.04,16.00,20.64,14.40,0.00,0.00,2.21,37.54,2.56,0.00,14.15,22.48,0.00,36.99,5.00,0.00,0.00,0.00,0.00,21.74,11.27,0.00,7.78,19.31,0.00,4.92,1.86,3.29,0.00,0.00,0.12
1,43.33,40.51,14.00,20.17,14.83,0.00,0.00,2.33,37.89,2.56,0.00,14.32,21.74,0.00,35.62,4.73,0.00,0.00,0.00,0.00,21.74,12.68,0.00,7.95,19.56,0.00,4.92,1.86,3.25,0.00,0.00,0.12
1,45.16,44.30,18.00,21.34,15.20,0.00,0.00,2.41,38.28,2.56,0.00,14.76,21.57,0.00,34.25,4.71,0.00,0.00,0.00,0.00,22.14,12.68,0.00,8.15,19.72,0.00,4.92,1.88,3.27,0.00,0.00,0.12
1,45.96,45.57,20.00,22.90,15.51,0.00,0.00,2.48,37.33,2.56,0.00,14.31,20.94,0.00,32.88,4.45,0.00,0.00,0.00,0.00,21.78,11.27,0.00,7.75,19.31,0.00,4.92,1.87,3.42,0.00,0.00,0.13
1,46.50,45.57,22.00,24.91,15.02,0.00,0.00,2.43,36.58,2.56,0.00,14.03,20.60,0.00,31.51,4.30,0.00,0.00,0.00,0.00,22.85,12.68,0.00,8.32,19.45,0.00,4.92,1.87,3.37,0.00,0.00,0.13
1,47.09,45.57,22.00,25.18,14.78,0.00,0.00,2.36,37.09,2.56,0.00,14.59,21.03,0.00,32.88,4.44,0.00,0.00,0.00,0.00,22.79,12.68,0.00,8.48,19.25,0.00,3.28,1.78,3.37,0.00,0.00,0.13
1,47.80,45.57,22.00,25.72,14.78,0.00,0.00,2.32,36.95,2.56,0.00,14.49,19.88,0.00,28.77,4.02,0.00,0.00,0.00,0.00,23.03,11.27,0.00,8.69,19.08,0.00,1.64,1.72,3.36,0.00,0.00,0.13
1,47.59,44.30,22.00,26.18,14.77,0.00,0.00,2.32,37.05,2.56,0.00,14.43,20.39,0.00,30.14,4.26,0.00,0.00,0.00,0.00,23.08,11.27,0.00,8.61,18.41,0.00,1.64,1.60,3.33,0.00,0.00,0.13
1,48.85,46.84,24.00,26.61,14.71,0.00,0.00,2.33,36.67,2.56,0.00,14.45,20.17,0.00,27.40,4.28,0.00,0.00,0.00,0.00,23.23,11.27,0.00,8.67,17.89,0.00,1.64,1.54,3.48,0.00,0.00,0.14
1,48.38,46.84,24.00,25.04,14.61,0.00,0.00,2.24,35.32,2.56,0.00,13.59,20.15,0.00,27.40,4.40,0.00,0.00,0.00,0.00,23.09,9.86,0.00,8.03,17.54,0.00,1.64,1.50,3.56,0.00,0.00,0.14
1,50.42,50.63,24.00,26.62,14.49,0.00,0.00,2.20,35.33,2.56,0.00,13.31,20.51,0.00,27.40,4.53,0.00,0.00,0.00,0.00,24.18,12.68,0.00,8.94,17.35,0.00,1.64,1.49,3.58,0.00,0.00,0.14
1,52.43,54.43,24.00,27.86,14.35,0.00,0.00,2.17,35.77,2.56,0.00,13.38,20.73,0.00,26.03,4.58,0.00,0.00,0.00,0.00,24.38,12.68,0.00,9.19,17.32,0.00,1.64,1.49,3.54,0.00,0.00,0.14
1,54.57,55.70,28.00,30.32,14.16,0.00,0.00,2.14,35.62,2.56,0.00,13.72,20.05,0.00,27.40,4.27,0.00,0.00,0.00,0.00,26.87,15.49,1.96,11.35,17.07,0.00,1.64,1.49,3.42,0.00,0.00,0.13
1,55.45,54.43,28.00,30.78,14.29,0.00,0.00,2.10,33.37,2.56,0.00,12.21,19.31,0.00,26.03,4.05,0.00,0.00,0.00,0.00,27.39,16.90,1.96,11.59,17.33,0.00,1.64,1.50,3.40,0.00,0.00,0.13
1,56.42,54.43,32.00,32.26,15.01,0.00,0.00,2.21,32.81,0.00,0.00,11.85,19.74,0.00,28.77,4.18,0.00,0.00,0.00,0.00,27.89,19.72,1.96,12.27,17.42,0.00,0.00,1.53,3.48,0.00,0.00,0.13
1,57.97,55.70,34.00,34.44,14.88,0.00,0.00,2.34,32.39,2.56,0.00,11.58,20.83,0.00,31.51,4.78,0.00,0.00,0.00,0.00,29.20,21.13,1.96,13.30,17.14,0.00,0.00,1.51,3.48,0.00,0.00,0.14
1,58.24,56.96,34.00,34.40,15.41,0.00,0.00,2.55,32.87,2.56,0.00,11.77,21.28,0.00,32.88,4.92,0.00,0.00,0.00,0.00,29.24,21.13,1.96,13.17,17.07,0.00,0.00,1.47,3.55,0.00,0.00,0.14
1,58.69,55.70,36.00,35.17,15.03,0.00,0.00,2.45,32.79,5.13,0.00,12.33,21.28,0.00,31.51,4.91,0.00,0.00,0.00,0.00,28.91,21.13,1.96,13.10,17.01,0.00,0.00,1.43,3.65,0.00,0.00,0.14
1,58.09,54.43,36.00,34.91,15.38,0.00,0.00,2.61,33.45,5.13,0.00,12.80,22.33,0.00,32.88,5.64,0.00,0.00,0.00,0.00,27.25,19.72,1.96,11.71,16.91,0.00,0.00,1.42,3.66,0.00,0.00,0.15
1,56.89,55.70,32.00,33.33,15.29,0.00,0.00,2.72,33.47,5.13,0.00,13.01,22.57,0.00,34.25,5.82,0.00,0.00,0.00,0.00,26.79,16.90,1.96,11.38,16.95,0.00,0.00,1.46,3.64,0.00,0.00,0.15
1,56.14,53.16,30.00,32.42,15.55,0.00,0.00,2.82,33.53,5.13,0.00,13.00,22.79,0.00,35.62,5.82,0.00,0.00,0.00,0.00,25.91,15.49,1.96,10.83,17.05,0.00,1.64,1.44,3.70,0.00,0.00,0.15
1,57.54,53.16,34.00,33.77,15.62,0.00,0.00,2.85,32.28,5.13,0.00,11.99,22.65,0.00,35.62,5.72,0.00,0.00,0.00,0.00,25.92,15.49,1.96,10.75,17.77,0.00,1.64,1.52,3.61,0.00,0.00,0.14
1,56.74,50.63,32.00,33.06,15.58,0.00,0.00,2.89,32.52,5.13,0.00,12.11,22.83,0.00,34.25,5.96,0.00,0.00,0.00,0.00,25.89,15.49,1.96,10.81,18.13,0.00,1.64,1.60,3.58,0.00,0.00,0.14
1,57.63,49.37,30.00,33.55,15.65,0.00,0.00,2.88,31.98,5.13,0.00,11.73,22.88,0.00,35.62,5.94,0.00,0.00,0.00,0.00,25.95,15.49,1.96,10.81,18.31,0.00,1.64,1.63,3.64,0.00,0.00,0.14
1,59.24,50.63,30.00,37.21,15.69,0.00,0.00,2.91,32.19,5.13,0.00,12.03,22.73,0.00,35.62,6.01,0.00,0.00,0.00,0.00,27.85,18.31,1.96,13.48,18.76,0.00,3.28,1.66,3.59,0.00,0.00,0.13
1,57.10,49.37,28.00,33.32,16.04,0.00,0.00,2.98,32.28,5.13,0.00,12.09,22.57,0.00,35.62,5.91,0.00,0.00,0.00,0.00,27.67,18.31,1.96,13.50,18.53,0.00,3.28,1.58,3.63,0.00,0.00,0.13
1,56.35,48.10,28.00,32.51,16.40,0.00,0.00,3.05,32.44,5.13,0.00,12.01,22.10,0.00,34.25,5.76,0.00,0.00,0.00,0.00,27.76,19.72,1.96,13.42,18.35,0.00,3.28,1.53,3.72,0.00,0.00,0.14
1,56.30,49.37,28.00,32.58,16.48,0.00,0.00,3.08,33.78,5.13,0.00,12.78,22.28,0.00,35.62,5.88,0.00,0.00,0.00,0.00,27.68,19.72,1.96,13.40,17.83,0.00,3.28,1.46,3.80,0.00,0.00,0.15
1,56.91,51.90,26.00,33.27,16.72,0.00,0.00,3.11,33.16,5.13,0.00,12.71,22.10,0.00,34.25,5.80,0.00,0.00,0.00,0.00,27.53,21.13,1.96,13.42,17.99,0.00,3.28,1.50,3.74,0.00,0.00,0.14
1,59.48,54.43,30.00,35.46,17.20,0.00,0.00,3.24,33.50,5.13,0.00,12.62,22.71,0.00,35.62,6.04,0.00,0.00,0.00,0.00,28.35,22.54,1.96,13.76,18.20,0.00,3.28,1.54,3.79,0.00,0.00,0.14
1,58.54,51.90,28.00,34.85,16.93,0.00,0.00,3.11,32.92,5.13,0.00,12.27,22.99,0.00,35.62,6.13,0.00,0.00,0.00,0.00,28.61,23.94,1.96,14.13,18.72,0.00,3.28,1.59,3.52,0.00,0.00,0.13
1,56.91,48.10,26.00,33.70,17.02,0.00,0.00,3.17,33.97,5.13,0.00,13.01,23.28,0.00,36.99,6.12,0.00,0.00,0.00,0.00,27.20,19.72,1.96,13.27,18.60,0.00,3.28,1.58,3.46,0.00,0.00,0.13
1,56.30,46.84,26.00,33.37,17.04,0.00,0.00,3.11,33.32,5.13,0.00,12.93,23.10,0.00,36.99,6.12,0.00,0.00,0.00,0.00,27.05,19.72,1.96,12.81,18.79,0.00,3.28,1.56,3.41,0.00,0.00,0.13
1,54.45,44.30,22.00,31.37,17.24,0.00,0.00,3.22,33.39,5.13,0.00,12.88,23.16,0.00,35.62,6.26,0.00,0.00,0.00,0.00,25.29,16.90,0.00,11.28,18.92,0.00,3.28,1.60,3.45,0.00,0.00,0.13
1,53.72,44.30,22.00,30.77,17.05,0.00,0.00,3.18,33.28,5.13,0.00,13.00,23.13,0.00,34.25,6.32,0.00,0.00,0.00,0.00,24.56,16.90,0.00,10.60,19.14,0.00,6.56,1.63,3.44,0.00,0.00,0.13
1,52.85,44.30,22.00,29.52,16.45,0.00,0.00,3.05,33.67,5.13,0.00,13.21,23.39,0.00,34.25,6.39,0.00,0.00,0.00,0.00,24.12,14.08,0.00,10.43,18.79,0.00,6.56,1.57,3.43,0.00,0.00,0.13
1,49.94,40.51,20.00,26.14,16.26,0.00,0.00,2.93,32.63,2.56,0.00,12.60,23.13,0.00,32.88,6.07,0.00,0.00,0.00,0.00,22.88,11.27,0.00,8.97,18.68,0.00,6.56,1.52,3.43,0.00,0.00,0.12
1,50.28,40.51,22.00,26.89,15.86,0.00,0.00,2.73,33.82,2.56,0.00,13.62,23.90,0.00,38.36,6.35,0.00,0.00,0.00,0.00,23.05,12.68,0.00,9.30,18.94,0.00,6.56,1.59,3.47,0.00,0.00,0.13
1,49.99,37.97,20.00,25.97,15.96,0.00,0.00,2.70,34.02,0.00,0.00,13.91,23.55,0.00,38.36,6.21,0.00,0.00,0.00,0.00,22.87,12.68,0.00,9.12,19.40,0.00,6.56,1.66,3.38,0.00,0.00,0.12
1,50.64,41.77,20.00,25.98,15.94,0.00,0.00,2.67,34.19,0.00,0.00,13.80,22.64,0.00,36.99,5.56,0.00,0.00,0.00,0.00,23.12,12.68,0.00,9.14,19.92,0.00,8.20,1.75,3.38,0.00,0.00,0.12
1,51.95,43.04,22.00,27.70,15.99,0.00,0.00,2.55,33.01,0.00,0.00,13.27,21.40,0.00,31.51,5.08,0.00,0.00,0.00,0.00,23.46,14.08,0.00,9.62,20.17,0.00,8.20,1.75,3.29,0.00,0.00,0.11
1,51.39,43.04,22.00,27.44,15.77,0.00,0.00,2.46,33.90,0.00,0.00,13.20,21.23,0.00,32.88,4.87,0.00,0.00,0.00,0.00,23.49,14.08,0.00,9.65,19.69,0.00,6.56,1.70,3.28,0.00,0.00,0.12
1,49.63,41.77,18.00,25.71,15.79,0.00,0.00,2.54,34.07,0.00,0.00,13.45,21.66,0.00,32.88,5.11,0.00,0.00,0.00,0.00,23.62,14.08,0.00,9.69,19.43,0.00,6.56,1.70,3.34,0.00,0.00,0.12
1,49.91,41.77,18.00,26.14,15.21,0.00,0.00,2.38,34.23,0.00,0.00,13.88,22.03,0.00,34.25,5.31,0.00,0.00,0.00,0.00,23.19,12.68,0.00,9.53,18.80,0.00,6.56,1.63,3.36,0.00,0.00,0.12
1,50.70,46.84,18.00,25.91,15.12,0.00,0.00,2.39,34.90,0.00,0.00,14.25,22.30,0.00,32.88,5.48,0.00,0.00,0.00,0.00,23.44,12.68,0.00,9.34,18.48,0.00,6.56,1.56,3.33,0.00,0.00,0.12
1,49.18,49.37,14.00,23.51,15.07,0.00,0.00,2.34,34.84,0.00,0.00,14.14,22.81,0.00,36.99,5.54,0.00,0.00,0.00,0.00,22.33,11.27,0.00,8.28,18.19,0.00,4.92,1.54,3.43,0.00,0.00,0.13
1,50.02,50.63,18.00,23.31,14.95,0.00,0.00,2.25,34.04,0.00,0.00,13.85,23.03,0.00,36.99,5.52,0.00,0.00,0.00,0.00,20.50,8.45,0.00,6.13,18.32,0.00,4.92,1.55,3.45,0.00,0.00,0.14
1,52.03,54.43,20.00,25.48,14.78,0.00,0.00,2.20,35.33,2.56,0.00,14.48,23.36,0.00,36.99,5.75,0.00,0.00,0.00,0.00,20.75,8.45,0.00,6.39,18.49,0.00,4.92,1.58,3.45,0.00,0.00,0.14
1,52.58,54.43,20.00,25.43,14.75,0.00,0.00,2.17,35.02,2.56,0.00,14.26,23.21,0.00,36.99,5.72,0.00,0.00,0.00,0.00,20.87,8.45,0.00,6.37,18.94,0.00,6.56,1.65,3.40,0.00,0.00,0.13
1,50.97,51.90,20.00,24.12,14.52,0.00,0.00,2.16,34.89,2.56,0.00,14.48,23.39,0.00,39.73,5.55,0.00,0.00,0.00,0.00,20.68,7.04,0.00,6.04,18.52,0.00,6.56,1.61,3.49,0.00,0.00,0.13
1,50.51,53.16,20.00,22.80,14.79,0.00,0.00,2.24,35.34,2.56,0.00,14.79,23.02,0.00,38.36,5.45,0.00,0.00,0.00,0.00,20.80,5.63,0.00,6.05,18.79,0.00,6.56,1.68,3.41,0.00,0.00,0.13
1,49.88,53.16,20.00,22.21,14.94,0.00,0.00,2.28,37.69,5.13,0.00,16.58,23.33,0.00,39.73,5.56,0.00,0.00,0.00,0.00,19.58,4.23,0.00,5.50,19.04,0.00,6.56,1.73,3.53,0.00,0.00,0.14
1,50.47,55.70,22.00,22.63,14.82,0.00,0.00,2.28,37.61,7.69,0.00,17.08,23.14,0.00,41.10,5.36,0.00,0.00,0.00,0.00,19.94,4.23,0.00,5.51,19.25,0.00,6.56,1.74,3.54,0.00,0.00,0.14
1,49.69,54.43,22.00,22.16,14.62,0.00,0.00,2.20,38.67,7.69,0.00,17.62,22.97,0.00,39.73,5.50,0.00,0.00,0.00,0.00,19.63,4.23,0.00,5.47,18.92,0.00,6.56,1.72,3.62,0.00,0.00,0.14
1,50.05,56.96,22.00,22.01,14.67,0.00,0.00,2.26,38.64,10.26,0.00,17.95,22.70,0.00,38.36,5.41,0.00,0.00,0.00,0.00,19.46,4.23,0.00,5.43,18.95,0.00,6.56,1.69,3.63,0.00,0.00,0.15
1,51.34,59.49,26.00,22.57,14.47,0.00,0.00,2.18,39.23,10.26,0.00,18.26,22.59,0.00,39.73,5.42,0.00,0.00,0.00,0.00,19.50,4.23,0.00,5.52,18.51,0.00,3.28,1.62,3.64,0.00,0.00,0.14
1,50.78,59.49,24.00,22.85,14.32,0.00,0.00,2.14,39.82,10.26,0.00,18.48,22.07,0.00,39.73,5.19,0.00,0.00,0.00,0.00,19.23,4.23,0.00,5.65,18.28,0.00,3.28,1.62,3.66,0.00,0.00,0.15
1,51.09,59.49,22.00,22.67,14.64,0.00,0.00,2.21,41.33,12.82,0.00,19.92,22.64,0.00,41.10,5.36,0.00,0.00,0.00,0.00,18.91,4.23,0.00,5.64,18.16,0.00,3.28,1.62,3.63,0.00,0.00,0.14
1,52.66,60.76,22.00,24.80,14.33,0.00,0.00,2.07,40.26,12.82,0.00,19.04,21.43,0.00,32.88,5.23,0.00,0.00,0.00,0.00,18.40,2.82,0.00,5.29,18.12,0.00,3.28,1.62,3.58,0.00,0.00,0.14
1,54.75,64.56,22.00,26.37,14.09,0.00,0.00,2.04,39.79,12.82,0.00,18.25,21.84,0.00,34.25,5.21,0.00,0.00,0.00,0.00,18.94,2.82,0.00,5.63,17.43,0.00,3.28,1.54,3.58,0.00,0.00,0.14
1,55.29,64.56,22.00,28.17,13.98,0.00,0.00,2.00,38.92,12.82,0.00,17.71,22.25,0.00,35.62,5.54,0.00,0.00,0.00,0.00,20.02,2.82,0.00,6.05,16.91,0.00,1.64,1.44,3.61,0.00,0.00,0.14
1,54.06,64.56,20.00,26.29,14.19,0.00,0.00,2.02,39.31,12.82,0.00,17.87,22.62,0.00,35.62,5.58,0.00,0.00,0.00,0.00,20.06,4.23,0.00,5.93,17.09,0.00,1.64,1.44,3.72,0.00,0.00,0.15
1,53.62,62.03,20.00,26.28,14.21,0.00,0.00,2.04,39.83,12.82,0.00,18.45,22.16,0.00,32.88,5.54,0.00,0.00,0.00,0.00,19.98,4.23,0.00,6.14,17.17,0.00,1.64,1.45,3.67,0.00,0.00,0.15
1,53.33,60.76,20.00,26.12,13.96,0.00,0.00,1.94,40.55,15.38,0.00,19.67,22.79,0.00,34.25,5.88,0.00,0.00,0.00,0.00,20.13,4.23,0.00,6.27,16.77,0.00,1.64,1.37,3.70,0.00,0.00,0.15
1,52.26,59.49,20.00,25.32,14.01,0.00,0.00,1.92,42.23,15.38,0.00,20.62,22.93,0.00,34.25,6.02,0.00,0.00,0.00,0.00,20.02,4.23,0.00,6.17,17.11,0.00,1.64,1.41,3.69,0.00,0.00,0.15
1,52.73,59.49,20.00,25.71,14.09,0.00,0.00,1.90,42.87,17.95,0.00,22.12,23.25,0.00,36.99,6.04,0.00,0.00,0.00,0.00,19.42,4.23,0.00,6.03,17.73,0.00,3.28,1.51,3.75,0.00,0.00,0.16
1,54.85,56.96,26.00,28.79,13.79,0.00,0.00,1.85,43.75,17.95,0.00,22.64,23.60,0.00,34.25,6.39,0.00,0.00,0.00,0.00,20.57,5.63,0.00,6.97,17.67,0.00,3.28,1.52,3.68,0.00,0.00,0.15
1,53.23,53.16,24.00,27.70,13.58,0.00,0.00,1.83,45.33,20.51,0.00,24.15,23.57,0.00,34.25,6.55,0.00,0.00,0.00,0.00,20.51,5.63,0.00,7.04,17.38,0.00,3.28,1.49,3.57,0.00,0.00,0.14
1,51.08,49.37,18.00,26.48,13.78,0.00,0.00,1.87,45.19,20.51,0.00,24.43,23.66,0.00,34.25,6.59,0.00,0.00,0.00,0.00,20.31,4.23,0.00,6.93,16.88,0.00,3.28,1.42,3.59,0.00,0.00,0.14
1,51.06,48.10,18.00,26.32,13.90,0.00,0.00,1.94,45.70,20.51,0.00,24.98,24.61,0.00,35.62,7.12,0.00,0.00,0.00,0.00,20.41,4.23,0.00,7.15,16.82,0.00,1.64,1.45,3.52,0.00,0.00,0.13
1,52.62,53.16,22.00,27.24,13.89,0.00,0.00,1.94,46.02,23.08,0.00,25.27,25.08,0.00,35.62,7.34,0.00,0.00,0.00,0.00,19.96,4.23,0.00,6.99,16.78,0.00,1.64,1.43,3.55,0.00,0.00,0.14
1,50.83,49.37,18.00,25.88,13.07,0.00,0.00,1.73,46.95,23.08,0.00,25.97,25.53,0.00,38.36,7.50,0.00,0.00,0.00,0.00,19.75,4.23,0.00,6.90,16.86,0.00,1.64,1.37,3.52,0.00,0.00,0.13
1,50.78,48.10,18.00,25.80,13.06,0.00,0.00,1.76,45.06,20.51,0.00,24.15,25.86,0.00,39.73,7.72,0.00,0.00,0.00,0.00,19.89,4.23,0.00,6.92,16.21,0.00,1.64,1.31,3.50,0.00,0.00,0.13
1,49.84,45.57,16.00,25.41,13.12,0.00,0.00,1.75,44.28,17.95,0.00,23.41,25.79,0.00,38.36,7.69,0.00,0.00,0.00,0.00,20.02,4.23,0.00,6.92,16.05,0.00,1.64,1.28,3.47,0.00,0.00,0.12
1,49.73,45.57,16.00,25.30,13.06,0.00,0.00,1.75,44.54,20.51,0.00,23.74,25.90,0.00,36.99,7.69,0.00,0.00,0.00,0.00,20.28,4.23,0.00,6.96,15.85,0.00,1.64,1.26,3.44,0.00,0.00,0.12
1,49.66,44.30,16.00,25.33,12.58,0.00,0.00,1.67,43.86,17.95,0.00,23.51,26.19,0.00,38.36,8.00,0.00,0.00,0.00,0.00,20.58,4.23,0.00,7.07,15.48,0.00,1.64,1.22,3.54,0.00,0.00,0.13
1,48.04,40.51,12.00,24.70,12.56,0.00,0.00,1.57,44.48,17.95,0.00,23.69,26.17,0.00,38.36,7.92,0.00,0.00,0.00,0.00,21.15,4.23,0.00,7.34,15.11,0.00,1.64,1.20,3.58,0.00,0.00,0.13
1,48.92,41.77,14.00,24.76,13.00,0.00,0.00,1.74,44.41,17.95,0.00,23.50,26.70,0.00,38.36,7.97,0.00,0.00,0.00,0.00,22.38,5.63,1.96,8.13,15.36,0.00,1.64,1.25,3.60,0.00,0.00,0.12
1,48.73,40.51,14.00,24.65,12.69,0.00,0.00,1.69,42.68,15.38,0.00,22.16,26.26,0.00,38.36,7.76,0.00,0.00,0.00,0.00,22.89,5.63,1.96,8.63,15.91,0.00,1.64,1.31,3.59,0.00,0.00,0.13
1,47.75,41.77,14.00,21.93,12.67,0.00,0.00,1.69,42.51,15.38,0.00,21.90,26.25,0.00,39.73,7.56,0.00,0.00,0.00,0.00,22.70,5.63,1.96,8.27,15.93,0.00,3.28,1.28,3.57,0.00,0.00,0.13
1,46.97,40.51,16.00,21.67,13.10,0.00,0.00,1.82,41.95,15.38,0.00,21.37,26.35,0.00,39.73,7.52,0.00,0.00,0.00,0.00,22.75,5.63,1.96,8.19,15.90,0.00,3.28,1.27,3.65,0.00,0.00,0.13
1,45.24,40.51,16.00,19.73,13.27,0.00,0.00,1.85,42.37,15.38,0.00,21.55,25.78,0.00,36.99,7.21,0.00,0.00,0.00,0.00,21.88,5.63,1.96,7.76,16.14,0.00,3.28,1.28,3.73,0.00,0.00,0.14
1,45.24,39.24,16.00,19.75,13.20,0.00,0.00,1.92,42.11,15.38,0.00,21.38,26.05,0.00,38.36,7.27,0.00,0.00,0.00,0.00,21.50,4.23,1.96,7.76,15.95,0.00,3.28,1.26,3.73,0.00,0.00,0.13
1,45.28,39.24,16.00,19.56,13.45,0.00,0.00,1.98,40.82,15.38,0.00,20.34,26.25,0.00,39.73,7.34,0.00,0.00,0.00,0.00,21.20,2.82,1.96,7.15,15.88,0.00,3.28,1.27,3.77,0.00,0.00,0.14
1,47.01,41.77,18.00,21.34,13.47,0.00,0.00,1.97,39.24,12.82,0.00,19.04,25.63,0.00,39.73,6.89,0.00,0.00,0.00,0.00,21.75,2.82,1.96,7.88,16.37,0.00,3.28,1.36,3.64,0.00,0.00,0.13
1,47.71,44.30,18.00,21.75,13.55,0.00,0.00,1.93,38.24,12.82,0.00,18.03,25.32,0.00,39.73,6.79,0.00,0.00,0.00,0.00,21.98,2.82,1.96,7.95,16.18,0.00,3.28,1.34,3.67,0.00,0.00,0.13
1,47.58,44.30,18.00,21.83,13.93,0.00,0.00,2.05,36.59,10.26,0.00,16.67,24.14,0.00,36.99,6.37,0.00,0.00,0.00,0.00,21.95,2.82,1.96,7.99,15.41,0.00,1.64,1.22,3.62,0.00,0.00,0.12
1,46.44,44.30,16.00,19.33,14.04,0.00,0.00,2.05,36.50,10.26,0.00,15.91,24.98,0.00,39.73,6.40,0.00,0.00,0.00,0.00,20.99,1.41,1.96,7.14,14.80,0.00,1.64,1.17,3.70,0.00,0.00,0.13
1,46.30,43.04,14.00,19.00,13.68,0.00,0.00,2.03,34.57,7.69,0.00,14.38,25.11,0.00,39.73,6.47,0.00,0.00,0.00,0.00,21.05,1.41,1.96,7.12,15.12,0.00,1.64,1.24,3.78,0.00,0.00,0.13
1,46.93,43.04,18.00,18.40,13.66,0.00,0.00,2.04,32.74,5.13,0.00,12.88,24.85,0.00,39.73,6.30,0.00,0.00,0.00,0.00,20.97,1.41,1.96,6.90,15.61,0.00,1.64,1.34,3.82,0.00,0.00,0.13
1,47.10,45.57,18.00,18.04,14.20,0.00,0.00,2.17,31.93,5.13,0.00,12.22,23.72,0.00,36.99,5.81,0.00,0.00,0.00,0.00,20.93,1.41,1.96,6.95,15.73,0.00,1.64,1.39,3.79,0.00,0.00,0.13
1,44.98,40.51,14.00,16.69,14.42,0.00,0.00,2.14,30.53,2.56,0.00,11.21,23.99,0.00,36.99,5.88,0.00,0.00,0.00,0.00,21.27,1.41,1.96,6.99,15.90,0.00,1.64,1.39,3.68,0.00,0.00,0.13
1,45.73,41.77,14.00,17.01,14.48,0.00,0.00,2.15,28.96,2.56,0.00,10.43,23.17,0.00,34.25,5.63,0.00,0.00,0.00,0.00,20.53,1.41,1.96,6.77,15.56,0.00,1.64,1.35,3.62,0.00,0.00,0.12
1,44.89,41.77,14.00,16.76,14.88,0.00,0.00,2.25,29.10,2.56,0.00,10.34,22.22,0.00,31.51,5.25,0.00,0.00,0.00,0.00,20.64,1.41,1.96,6.75,15.20,0.00,1.64,1.33,3.70,0.00,0.00,0.13
1,44.22,41.77,14.00,16.58,14.97,0.00,0.00,2.24,29.14,2.56,0.00,10.20,22.43,0.00,32.88,5.23,0.00,0.00,0.00,0.00,20.29,1.41,1.96,6.71,15.76,0.00,1.64,1.38,3.61,0.00,0.00,0.12
1,44.77,41.77,14.00,16.57,15.00,0.00,0.00,2.21,27.53,0.00,0.00,8.93,22.03,0.00,34.25,4.97,0.00,0.00,0.00,0.00,19.85,1.41,1.96,6.65,15.57,0.00,1.64,1.37,3.73,0.00,0.00,0.14
1,45.24,43.04,14.00,16.65,15.12,0.00,0.00,2.20,27.22,0.00,0.00,8.29,21.79,0.00,32.88,4.68,0.00,0.00,0.00,0.00,20.10,1.41,1.96,6.69,15.72,0.00,1.64,1.38,3.78,0.00,0.00,0.13
1,45.94,44.30,14.00,16.76,15.09,0.00,0.00,2.20,26.97,0.00,0.00,8.23,21.66,0.00,32.88,4.72,0.00,0.00,0.00,0.00,19.52,1.41,1.96,6.40,15.72,0.00,1.64,1.37,3.92,0.00,0.00,0.15
1,45.73,44.30,12.00,16.76,15.00,0.00,0.00,2.16,26.52,0.00,0.00,7.67,21.25,0.00,32.88,4.66,0.00,0.00,0.00,0.00,19.33,1.41,0.00,6.79,15.67,0.00,1.64,1.32,3.99,0.00,0.00,0.16
1,45.81,44.30,14.00,16.47,15.07,0.00,0.00,2.15,26.39,0.00,0.00,7.49,20.52,0.00,28.77,4.69,0.00,0.00,0.00,0.00,18.28,1.41,0.00,5.38,15.47,0.00,1.64,1.28,3.91,0.00,0.00,0.15
1,44.79,43.04,12.00,15.99,15.44,0.00,0.00,2.28,26.60,0.00,0.00,7.78,20.63,0.00,28.77,4.74,0.00,0.00,0.00,0.00,18.48,1.41,0.00,5.41,15.02,0.00,0.00,1.22,3.99,0.00,0.00,0.16
1,47.11,43.04,12.00,18.73,15.61,0.00,0.00,2.27,27.31,0.00,0.00,8.31,20.59,0.00,28.77,4.82,0.00,0.00,0.00,0.00,19.50,2.82,0.00,6.80,14.98,0.00,0.00,1.24,3.90,0.00,0.00,0.15
1,46.93,40.51,14.00,19.77,15.67,0.00,0.00,2.27,26.99,0.00,0.00,8.26,21.59,0.00,30.14,5.30,0.00,0.00,0.00,0.00,19.84,2.82,0.00,6.95,14.75,0.00,0.00,1.22,3.81,0.00,0.00,0.15
1,49.00,44.30,14.00,22.20,16.02,0.00,0.00,2.30,27.24,0.00,0.00,8.47,21.32,0.00,28.77,5.35,0.00,0.00,0.00,0.00,20.47,4.23,0.00,7.83,14.53,0.00,0.00,1.18,3.83,0.00,0.00,0.15
1,51.41,46.84,16.00,24.71,16.45,0.00,0.00,2.38,27.13,0.00,0.00,8.43,20.95,0.00,27.40,5.18,0.00,0.00,0.00,0.00,22.15,5.63,0.00,9.88,14.53,0.00,0.00,1.20,3.82,0.00,0.00,0.15
1,49.66,44.30,14.00,23.23,16.57,0.00,0.00,2.39,26.27,0.00,0.00,8.03,20.84,0.00,24.66,5.25,0.00,0.00,0.00,0.00,21.37,5.63,0.00,9.41,14.33,0.00,0.00,1.19,3.95,0.00,0.00,0.16
1,51.21,44.30,18.00,24.73,17.14,0.00,0.00,2.64,26.79,0.00,0.00,8.34,20.67,0.00,23.29,5.03,0.00,0.00,0.00,0.00,22.06,8.45,0.00,9.84,14.85,0.00,0.00,1.29,3.95,0.00,0.00,0.16
1,52.63,46.84,18.00,26.24,16.73,0.00,0.00,2.54,27.01,0.00,0.00,8.00,21.60,0.00,24.66,5.40,0.00,0.00,0.00,0.00,22.77,9.86,0.00,10.49,15.39,0.00,0.00,1.34,4.04,0.00,0.00,0.16
1,50.87,44.30,18.00,25.67,16.98,0.00,0.00,2.64,26.17,0.00,0.00,7.97,21.44,0.00,23.29,5.44,0.00,0.00,0.00,0.00,23.53,9.86,0.00,10.77,15.51,0.00,0.00,1.36,3.98,0.00,0.00,0.16
1,51.25,45.57,18.00,25.87,17.32,0.00,0.00,2.76,25.63,0.00,0.00,7.88,20.85,0.00,21.92,5.38,0.00,0.00,0.00,0.00,24.36,11.27,0.00,11.44,15.52,0.00,0.00,1.34,4.05,0.00,0.00,0.16
1,50.17,43.04,16.00,26.12,17.62,0.00,0.00,2.76,26.53,0.00,0.00,8.23,20.70,0.00,21.92,5.46,0.00,0.00,0.00,0.00,24.39,11.27,0.00,11.63,15.57,0.00,0.00,1.31,3.97,0.00,0.00,0.16
1,48.66,40.51,16.00,25.81,16.96,0.00,0.00,2.59,26.22,0.00,0.00,7.93,20.66,0.00,23.29,5.34,0.00,0.00,0.00,0.00,24.24,11.27,0.00,11.56,15.45,0.00,0.00,1.23,3.94,0.00,0.00,0.16
1,49.71,44.30,18.00,26.14,16.57,0.00,0.00,2.54,26.97,0.00,0.00,8.23,20.00,0.00,21.92,5.00,0.00,0.00,0.00,0.00,23.87,11.27,0.00,11.25,15.18,0.00,0.00,1.18,4.02,0.00,0.00,0.16
1,49.00,41.77,18.00,25.67,16.62,0.00,0.00,2.55,27.08,0.00,0.00,8.39,19.47,0.00,20.55,5.00,0.00,0.00,0.00,0.00,23.62,11.27,0.00,11.21,15.52,0.00,0.00,1.20,4.28,0.00,0.00,0.18
1,50.00,43.04,20.00,26.44,16.43,0.00,0.00,2.43,27.02,0.00,0.00,8.00,20.49,0.00,24.66,5.24,0.00,0.00,0.00,0.00,23.70,11.27,0.00,11.22,15.59,0.00,0.00,1.20,4.31,0.00,0.00,0.18
1,50.78,45.57,20.00,26.75,16.11,0.00,0.00,2.43,27.17,0.00,0.00,8.23,20.82,0.00,26.03,5.29,0.00,0.00,0.00,0.00,24.08,11.27,0.00,11.33,15.54,0.00,0.00,1.20,4.47,0.00,0.00,0.19
1,50.64,46.84,20.00,26.73,16.23,0.00,0.00,2.46,27.43,0.00,0.00,8.35,20.94,0.00,24.66,5.40,0.00,0.00,0.00,0.00,24.36,11.27,0.00,11.29,15.82,0.00,0.00,1.25,4.44,0.00,0.00,0.19
1,51.15,49.37,20.00,27.21,16.12,0.00,0.00,2.49,27.73,0.00,0.00,8.57,21.58,0.00,26.03,5.53,0.00,0.00,0.00,0.00,23.49,11.27,0.00,11.04,16.25,0.00,0.00,1.30,4.28,0.00,0.00,0.17
1,51.01,49.37,20.00,27.37,16.61,0.00,0.00,2.58,26.77,0.00,0.00,8.23,21.04,0.00,24.66,5.35,0.00,0.00,0.00,0.00,23.56,11.27,0.00,11.07,16.44,0.00,0.00,1.33,4.07,0.00,0.00,0.17
1,50.95,50.63,20.00,27.32,16.49,0.00,0.00,2.55,26.29,0.00,0.00,8.32,21.63,0.00,24.66,5.48,0.00,0.00,0.00,0.00,22.66,9.86,0.00,10.66,16.34,0.00,0.00,1.30,3.84,0.00,0.00,0.14
1,50.25,49.37,18.00,27.17,16.26,0.00,0.00,2.55,25.83,0.00,0.00,8.21,21.62,0.00,26.03,5.44,0.00,0.00,0.00,0.00,22.63,9.86,0.00,10.53,16.39,0.00,0.00,1.36,3.84,0.00,0.00,0.14
1,50.35,50.63,18.00,27.28,15.62,0.00,0.00,2.38,25.37,0.00,0.00,8.13,21.66,0.00,27.40,5.48,0.00,0.00,0.00,0.00,23.03,11.27,0.00,10.76,16.33,0.00,0.00,1.36,3.82,0.00,0.00,0.14
1,48.17,46.84,16.00,25.02,15.49,0.00,0.00,2.38,25.32,0.00,0.00,7.84,21.32,0.00,27.40,5.26,0.00,0.00,0.00,0.00,21.86,9.86,0.00,9.61,16.38,0.00,0.00,1.33,3.82,0.00,0.00,0.14
1,49.41,49.37,18.00,24.59,15.85,0.00,0.00,2.43,24.88,0.00,0.00,7.40,20.51,0.00,26.03,4.79,0.00,0.00,0.00,0.00,21.48,9.86,0.00,9.07,16.73,0.00,0.00,1.37,3.76,0.00,0.00,0.14
1,47.20,45.57,18.00,21.89,15.73,0.00,0.00,2.41,24.49,0.00,0.00,7.12,20.29,0.00,26.03,4.73,0.00,0.00,0.00,0.00,20.51,8.45,0.00,8.12,17.26,0.00,1.64,1.51,3.78,0.00,0.00,0.14
1,45.30,45.57,16.00,20.43,14.91,0.00,0.00,2.27,24.81,0.00,0.00,7.17,20.53,0.00,26.03,4.82,0.00,0.00,0.00,0.00,19.47,7.04,0.00,6.95,17.07,0.00,1.64,1.46,3.73,0.00,0.00,0.14
1,45.79,46.84,16.00,19.94,14.58,0.00,0.00,2.19,24.57,0.00,0.00,6.98,20.37,0.00,27.40,4.67,0.00,0.00,0.00,0.00,19.83,7.04,0.00,6.37,17.11,0.00,1.64,1.46,3.69,0.00,0.00,0.13
1,45.64,46.84,16.00,20.41,14.08,0.00,0.00,1.96,24.75,0.00,0.00,7.07,20.22,0.00,27.40,4.72,0.00,0.00,0.00,0.00,19.33,5.63,0.00,6.28,16.47,0.00,1.64,1.34,3.72,0.00,0.00,0.14
1,43.46,44.30,16.00,17.86,14.02,0.00,0.00,1.95,25.07,0.00,0.00,6.96,20.00,0.00,27.40,4.61,0.00,0.00,0.00,0.00,18.43,4.23,0.00,5.52,15.97,0.00,1.64,1.27,3.60,0.00,0.00,0.14
1,43.67,43.04,16.00,17.50,13.66,0.00,0.00,1.87,25.75,2.56,0.00,7.20,20.85,2.44,28.77,5.02,0.00,0.00,0.00,0.00,17.78,4.23,0.00,5.00,15.63,0.00,1.64,1.24,3.52,0.00,0.00,0.13
1,43.00,40.51,14.00,17.49,13.45,0.00,0.00,1.79,26.33,2.56,0.00,7.43,20.59,2.44,30.14,4.78,0.00,0.00,0.00,0.00,17.33,2.82,0.00,4.83,15.94,0.00,1.64,1.24,3.47,0.00,0.00,0.13
1,42.38,41.77,12.00,16.23,13.80,0.00,0.00,1.82,25.71,2.56,0.00,7.10,21.55,2.44,31.51,4.86,0.00,0.00,0.00,0.00,17.21,2.82,0.00,4.33,15.91,0.00,1.64,1.27,3.54,0.00,0.00,0.13
1,42.60,41.77,14.00,16.62,13.95,0.00,0.00,1.99,25.67,2.56,0.00,7.00,20.97,2.44,30.14,4.65,0.00,0.00,0.00,0.00,17.48,4.23,0.00,4.65,16.52,0.00,4.92,1.35,3.56,0.00,0.00,0.13
1,42.62,41.77,14.00,16.82,14.88,0.00,0.00,2.37,24.98,2.56,0.00,6.53,21.34,2.44,32.88,4.73,0.00,0.00,0.00,0.00,17.03,4.23,0.00,4.56,16.80,0.00,4.92,1.47,3.60,0.00,0.00,0.13
1,41.91,40.51,12.00,16.67,15.04,0.00,0.00,2.47,24.66,2.56,0.00,6.33,21.07,2.44,32.88,4.51,0.00,0.00,0.00,0.00,17.64,4.23,0.00,4.66,16.58,0.00,4.92,1.48,3.67,0.00,0.00,0.14
1,42.00,40.51,12.00,16.38,14.98,0.00,0.00,2.52,24.97,2.56,0.00,6.34,20.88,2.44,31.51,4.36,0.00,0.00,0.00,0.00,18.13,4.23,0.00,4.85,16.42,0.00,4.92,1.45,3.75,0.00,0.00,0.15
1,40.00,35.44,10.00,15.55,14.94,0.00,0.00,2.52,24.19,2.56,0.00,5.96,20.18,2.44,28.77,4.22,0.00,0.00,0.00,0.00,18.19,4.23,0.00,4.97,16.56,0.00,4.92,1.45,3.59,0.00,0.00,0.14
1,39.80,34.18,10.00,15.42,14.81,0.00,0.00,2.48,24.03,2.56,0.00,5.76,20.80,2.44,30.14,4.38,0.00,0.00,0.00,0.00,17.85,4.23,0.00,4.85,16.42,0.00,4.92,1.49,3.54,0.00,0.00,0.14
1,39.41,31.65,10.00,15.28,15.17,0.00,0.00,2.52,23.23,2.56,0.00,5.45,20.33,2.44,30.14,4.26,0.00,0.00,0.00,0.00,17.96,4.23,0.00,4.89,16.44,0.00,4.92,1.50,3.63,0.00,0.00,0.15
1,38.49,29.11,10.00,14.83,15.11,0.00,0.00,2.50,23.87,2.56,0.00,5.74,20.42,2.44,30.14,4.29,0.00,0.00,0.00,0.00,17.89,4.23,0.00,4.88,16.86,0.00,4.92,1.54,3.67,0.00,0.00,0.15
1,38.28,26.58,10.00,15.21,15.40,0.00,0.00,2.52,24.92,2.56,0.00,6.22,20.55,2.44,30.14,4.39,0.00,0.00,0.00,0.00,18.00,4.23,0.00,4.86,17.03,0.00,4.92,1.56,3.77,0.00,0.00,0.16
1,39.28,27.85,10.00,15.89,15.21,0.00,0.00,2.45,25.00,2.56,0.00,6.10,19.89,2.44,28.77,4.12,0.00,0.00,0.00,0.00,18.22,4.23,0.00,4.95,16.97,0.00,4.92,1.60,3.75,0.00,0.00,0.16
1,40.03,30.38,10.00,16.87,14.84,0.00,0.00,2.38,24.46,2.56,0.00,5.79,20.35,2.44,31.51,4.14,0.00,0.00,0.00,0.00,18.33,4.23,0.00,5.11,16.86,0.00,4.92,1.55,3.69,0.00,0.00,0.16
1,41.04,32.91,12.00,17.47,15.53,0.00,0.00,2.55,23.76,2.56,0.00,5.33,20.46,2.44,30.14,4.14,0.00,0.00,0.00,0.00,18.12,2.82,0.00,5.02,17.38,0.00,4.92,1.62,3.69,0.00,0.00,0.16
1,38.28,30.38,8.00,15.91,15.38,0.00,0.00,2.54,23.92,2.56,0.00,5.42,20.11,2.44,28.77,4.09,0.00,0.00,0.00,0.00,18.26,2.82,0.00,5.18,17.58,0.00,6.56,1.67,3.73,0.00,0.00,0.16
1,38.74,30.38,8.00,16.22,15.05,0.00,0.00,2.45,23.89,2.56,0.00,5.44,20.72,2.44,28.77,4.21,0.00,0.00,0.00,0.00,18.12,2.82,0.00,5.08,17.49,0.00,4.92,1.58,3.65,0.00,0.00,0.15
1,38.37,29.11,8.00,15.92,14.54,0.00,0.00,2.33,24.61,2.56,0.00,5.61,21.44,2.44,32.88,4.42,0.00,0.00,0.00,0.00,18.09,2.82,0.00,5.00,17.50,0.00,4.92,1.61,3.73,0.00,0.00,0.15
1,39.08,29.11,10.00,16.46,14.86,0.00,0.00,2.36,25.22,2.56,0.00,5.72,21.41,2.44,34.25,4.46,0.00,0.00,0.00,0.00,18.13,2.82,0.00,5.14,17.24,0.00,4.92,1.59,3.83,0.00,0.00,0.16
1,37.18,25.32,6.00,14.96,15.40,0.00,0.00,2.49,24.64,2.56,0.00,5.37,22.69,2.44,38.36,4.75,0.00,0.00,0.00,0.00,17.32,1.41,0.00,4.55,17.43,0.00,4.92,1.63,3.75,0.00,0.00,0.15
1,38.44,29.11,6.00,15.50,15.90,0.00,0.00,2.59,24.43,2.56,0.00,5.30,23.21,2.44,39.73,5.13,0.00,0.00,0.00,0.00,17.50,1.41,0.00,4.59,17.79,0.00,4.92,1.65,3.85,0.00,0.00,0.16
1,39.48,31.65,6.00,15.95,16.48,0.00,0.00,2.76,23.30,0.00,0.00,4.64,22.04,0.00,36.99,4.52,0.00,0.00,0.00,0.00,17.47,1.41,0.00,4.59,18.27,0.00,4.92,1.72,3.87,0.00,0.00,0.16
1,39.77,35.44,8.00,16.62,16.61,0.00,0.00,2.75,23.02,0.00,0.00,4.40,22.85,0.00,39.73,4.66,0.00,0.00,0.00,0.00,17.67,1.41,0.00,4.70,18.96,0.00,6.56,1.89,3.97,0.00,0.00,0.17
1,39.10,34.18,8.00,16.24,16.28,0.00,0.00,2.72,22.94,0.00,0.00,4.51,22.15,0.00,35.62,4.54,0.00,0.00,0.00,0.00,16.59,1.41,0.00,4.24,18.97,0.00,6.56,1.86,3.95,0.00,0.00,0.17
1,38.32,32.91,6.00,15.27,15.55,0.00,0.00,2.51,23.64,0.00,0.00,4.65,21.33,0.00,34.25,4.32,0.00,0.00,0.00,0.00,16.45,1.41,0.00,4.27,18.03,0.00,3.28,1.74,3.83,0.00,0.00,0.16
1,37.75,31.65,6.00,15.12,15.03,0.00,0.00,2.25,23.55,0.00,0.00,4.60,21.28,0.00,32.88,4.30,0.00,0.00,0.00,0.00,16.80,1.41,0.00,4.60,17.58,0.00,3.28,1.65,3.80,0.00,0.00,0.16
1,38.11,31.65,6.00,15.02,14.85,0.00,0.00,2.14,23.16,0.00,0.00,4.57,21.23,0.00,32.88,4.30,0.00,0.00,0.00,0.00,16.32,1.41,0.00,4.49,17.63,0.00,3.28,1.65,3.70,0.00,0.00,0.15
1,37.42,31.65,6.00,14.95,15.05,0.00,0.00,2.12,23.02,0.00,0.00,4.44,21.99,0.00,34.25,4.72,0.00,0.00,0.00,0.00,16.31,1.41,0.00,4.36,17.87,0.00,3.28,1.67,3.48,0.00,0.00,0.14
1,39.16,34.18,6.00,15.42,14.90,0.00,0.00,2.11,23.10,0.00,0.00,4.42,22.31,0.00,35.62,4.82,0.00,0.00,0.00,0.00,16.30,1.41,0.00,4.43,17.88,0.00,3.28,1.68,3.45,0.00,0.00,0.14
1,39.71,34.18,6.00,15.85,15.15,0.00,0.00,2.16,22.48,0.00,0.00,4.28,21.68,0.00,32.88,4.65,0.00,0.00,0.00,0.00,16.03,1.41,0.00,4.41,17.69,0.00,3.28,1.64,3.39,0.00,0.00,0.13
1,39.21,32.91,6.00,15.25,15.04,0.00,0.00,2.13,23.24,0.00,0.00,4.55,22.42,0.00,35.62,4.70,0.00,0.00,0.00,0.00,16.04,1.41,0.00,4.35,17.39,0.00,3.28,1.56,3.27,0.00,0.00,0.12
1,40.20,34.18,8.00,16.31,15.08,0.00,0.00,2.24,23.33,0.00,0.00,4.30,22.91,0.00,36.99,4.96,0.00,0.00,0.00,0.00,16.53,1.41,0.00,4.56,16.96,0.00,3.28,1.46,3.52,0.00,0.00,0.13
1,40.51,34.18,8.00,16.14,14.89,0.00,0.00,2.23,23.17,0.00,0.00,4.03,23.70,0.00,41.10,5.15,0.00,0.00,0.00,0.00,16.77,1.41,0.00,4.64,17.02,0.00,3.28,1.47,3.51,0.00,0.00,0.14
1,40.11,32.91,8.00,15.46,15.39,0.00,0.00,2.39,23.38,0.00,0.00,4.13,23.83,0.00,41.10,5.11,0.00,0.00,0.00,0.00,16.52,1.41,0.00,4.58,16.73,0.00,3.28,1.41,3.57,0.00,0.00,0.14
1,39.03,29.11,8.00,14.32,15.72,0.00,0.00,2.44,23.12,0.00,0.00,4.06,23.51,0.00,38.36,5.01,0.00,0.00,0.00,0.00,15.93,1.41,0.00,4.16,17.05,0.00,3.28,1.47,3.64,0.00,0.00,0.14
1,39.97,32.91,8.00,14.87,15.08,0.00,0.00,2.30,23.82,0.00,0.00,4.23,23.50,0.00,38.36,5.03,0.00,0.00,0.00,0.00,15.69,1.41,0.00,3.93,17.12,0.00,3.28,1.49,3.69,0.00,0.00,0.14
1,39.60,32.91,6.00,14.61,15.15,0.00,0.00,2.32,23.85,0.00,0.00,4.30,24.22,0.00,43.84,5.17,0.00,0.00,0.00,0.00,16.46,2.82,0.00,4.40,16.80,0.00,1.64,1.47,3.68,0.00,0.00,0.13
1,40.40,34.18,6.00,14.69,15.22,0.00,0.00,2.35,25.26,0.00,0.00,4.97,24.38,0.00,45.21,5.21,0.00,0.00,0.00,0.00,16.56,2.82,0.00,4.46,16.50,0.00,1.64,1.44,3.77,0.00,0.00,0.14
1,41.08,34.18,6.00,15.93,15.39,0.00,0.00,2.36,25.17,0.00,0.00,5.02,23.82,0.00,42.47,5.05,0.00,0.00,0.00,0.00,16.69,2.82,0.00,4.48,15.80,0.00,1.64,1.35,3.74,0.00,0.00,0.14
1,41.10,37.97,4.00,15.37,15.11,0.00,0.00,2.35,25.86,0.00,0.00,5.79,23.60,0.00,41.10,5.08,0.00,0.00,0.00,0.00,16.28,2.82,0.00,4.26,16.05,0.00,1.64,1.37,3.70,0.00,0.00,0.14
1,41.18,37.97,4.00,15.29,14.31,0.00,0.00,2.22,26.25,0.00,0.00,5.89,23.28,0.00,38.36,5.00,0.00,0.00,0.00,0.00,15.89,2.82,0.00,4.12,15.85,0.00,1.64,1.33,3.61,0.00,0.00,0.13
1,41.81,40.51,4.00,15.20,14.00,0.00,0.00,2.11,26.42,0.00,0.00,5.86,21.91,0.00,34.25,4.39,0.00,0.00,0.00,0.00,16.18,2.82,0.00,4.25,15.97,0.00,1.64,1.36,3.50,0.00,0.00,0.13
1,39.96,36.71,4.00,14.94,14.21,0.00,0.00,2.11,26.36,0.00,0.00,5.82,21.98,0.00,35.62,4.34,0.00,0.00,0.00,0.00,16.24,2.82,0.00,4.27,16.15,0.00,1.64,1.39,3.60,0.00,0.00,0.14
1,39.86,35.44,4.00,14.77,13.95,0.00,0.00,2.03,26.43,0.00,0.00,5.97,20.48,0.00,30.14,3.95,0.00,0.00,0.00,0.00,15.88,2.82,0.00,4.06,15.60,0.00,0.00,1.25,3.60,0.00,0.00,0.14
1,40.66,36.71,4.00,15.16,14.08,0.00,0.00,2.10,26.27,0.00,0.00,5.90,21.12,0.00,32.88,4.12,0.00,0.00,0.00,0.00,16.64,2.82,0.00,4.27,14.82,0.00,0.00,1.18,3.51,0.00,0.00,0.13
1,40.62,37.97,4.00,15.27,14.37,0.00,0.00,2.08,25.63,0.00,0.00,5.75,22.05,0.00,35.62,4.33,0.00,0.00,0.00,0.00,16.86,2.82,0.00,4.34,15.20,0.00,0.00,1.22,3.48,0.00,0.00,0.13
1,41.92,41.77,4.00,15.82,14.35,0.00,0.00,2.03,25.92,0.00,0.00,5.92,22.50,0.00,35.62,4.54,0.00,0.00,0.00,0.00,16.64,1.41,0.00,3.70,15.16,0.00,0.00,1.18,3.57,0.00,0.00,0.13
1,42.05,43.04,4.00,15.84,14.45,0.00,0.00,2.06,26.02,0.00,0.00,5.87,23.08,0.00,38.36,4.65,0.00,0.00,0.00,0.00,17.53,1.41,0.00,3.96,15.24,0.00,0.00,1.18,3.52,0.00,0.00,0.13
1,44.12,46.84,8.00,17.02,14.14,0.00,0.00,2.00,26.28,0.00,0.00,6.15,22.85,0.00,36.99,4.49,0.00,0.00,0.00,0.00,17.65,1.41,0.00,4.25,15.35,0.00,0.00,1.21,3.55,0.00,0.00,0.13
1,43.39,45.57,8.00,16.83,13.94,0.00,0.00,1.94,27.11,0.00,0.00,6.52,22.69,0.00,38.36,4.58,0.00,0.00,0.00,0.00,17.53,1.41,0.00,4.20,15.01,0.00,0.00,1.15,3.60,0.00,0.00,0.13
1,42.86,46.84,8.00,16.44,14.37,0.00,0.00,2.05,27.31,0.00,0.00,6.69,22.69,0.00,38.36,4.56,0.00,0.00,0.00,0.00,17.64,1.41,0.00,4.13,15.57,0.00,0.00,1.23,3.64,0.00,0.00,0.14
1,42.01,46.84,8.00,16.27,14.93,0.00,0.00,2.22,27.73,0.00,0.00,6.76,22.37,0.00,38.36,4.48,0.00,0.00,0.00,0.00,18.06,1.41,0.00,4.33,15.90,0.00,0.00,1.23,3.66,0.00,0.00,0.14
1,44.02,51.90,8.00,17.32,14.91,0.00,0.00,2.20,26.99,0.00,0.00,6.53,21.40,0.00,35.62,4.05,0.00,0.00,0.00,0.00,17.39,1.41,0.00,4.15,16.15,0.00,0.00,1.31,3.49,0.00,0.00,0.12
1,43.75,51.90,8.00,16.49,14.83,0.00,0.00,2.19,26.72,0.00,0.00,6.29,20.31,0.00,30.14,3.75,0.00,0.00,0.00,0.00,17.45,1.41,0.00,4.15,15.98,0.00,0.00,1.29,3.42,0.00,0.00,0.12
1,44.47,54.43,10.00,17.29,14.08,0.00,0.00,1.99,26.84,0.00,0.00,6.22,20.40,0.00,30.14,4.04,0.00,0.00,0.00,0.00,17.44,1.41,0.00,4.15,16.27,0.00,0.00,1.31,3.42,0.00,0.00,0.12
1,44.60,55.70,10.00,17.35,14.10,0.00,0.00,2.01,27.04,0.00,0.00,6.38,20.88,0.00,31.51,4.21,0.00,0.00,0.00,0.00,17.37,1.41,0.00,4.16,15.93,0.00,0.00,1.25,3.32,0.00,0.00,0.12
1,43.79,53.16,10.00,16.51,14.66,0.00,0.00,2.17,27.15,0.00,0.00,6.75,20.77,0.00,30.14,4.19,0.00,0.00,0.00,0.00,17.40,1.41,0.00,4.15,15.54,0.00,0.00,1.20,3.28,0.00,0.00,0.12
1,42.50,49.37,10.00,15.89,14.70,0.00,0.00,2.14,26.99,0.00,0.00,6.66,20.13,0.00,26.03,4.11,0.00,0.00,0.00,0.00,16.02,0.00,0.00,3.47,15.27,0.00,0.00,1.15,3.20,0.00,0.00,0.12
1,42.25,48.10,10.00,15.73,14.67,0.00,0.00,2.13,25.20,0.00,0.00,6.11,19.89,0.00,27.40,3.98,0.00,0.00,0.00,0.00,15.68,0.00,0.00,3.30,15.55,0.00,0.00,1.15,3.18,0.00,0.00,0.11
1,42.65,49.37,10.00,15.50,14.98,0.00,0.00,2.20,25.10,0.00,0.00,6.10,20.39,0.00,28.77,4.10,0.00,0.00,0.00,0.00,15.55,0.00,0.00,3.33,15.64,0.00,0.00,1.16,3.20,0.00,0.00,0.12
1,41.24,46.84,10.00,14.92,15.83,0.00,0.00,2.44,24.36,0.00,0.00,5.50,20.08,0.00,28.77,4.02,0.00,0.00,0.00,0.00,15.50,0.00,0.00,3.35,15.79,0.00,0.00,1.19,3.25,0.00,0.00,0.12
1,41.67,46.84,12.00,15.48,16.16,0.00,0.00,2.44,23.89,0.00,0.00,5.20,20.20,0.00,28.77,4.00,0.00,0.00,0.00,0.00,15.90,0.00,0.00,3.47,16.20,0.00,0.00,1.23,3.27,0.00,0.00,0.12
1,41.55,46.84,12.00,15.23,16.14,0.00,0.00,2.42,24.07,0.00,0.00,5.23,20.59,0.00,31.51,4.04,0.00,0.00,0.00,0.00,16.05,0.00,0.00,3.43,16.55,0.00,0.00,1.31,3.33,0.00,0.00,0.13
1,41.49,46.84,12.00,15.15,16.45,0.00,0.00,2.57,23.96,0.00,0.00,5.34,20.80,0.00,31.51,4.22,0.00,0.00,0.00,0.00,15.99,0.00,0.00,3.39,16.68,0.00,0.00,1.31,3.22,0.00,0.00,0.12
1,41.98,46.84,10.00,15.95,16.89,0.00,0.00,2.63,24.95,0.00,0.00,6.16,21.80,0.00,36.99,4.39,0.00,0.00,0.00,0.00,16.51,0.00,0.00,3.59,16.99,0.00,0.00,1.38,3.26,0.00,0.00,0.12
1,43.75,48.10,10.00,17.87,16.70,0.00,0.00,2.61,24.64,0.00,0.00,5.99,21.77,0.00,36.99,4.21,0.00,0.00,0.00,0.00,17.24,0.00,0.00,4.06,17.20,0.00,0.00,1.37,3.28,0.00,0.00,0.12
1,44.93,49.37,10.00,19.53,16.96,0.00,0.00,2.70,25.57,0.00,0.00,6.41,20.98,0.00,35.62,4.02,0.00,0.00,0.00,0.00,17.96,2.82,0.00,5.09,17.29,0.00,0.00,1.36,3.34,0.00,0.00,0.12
1,44.58,48.10,10.00,19.58,16.75,0.00,0.00,2.64,25.75,0.00,0.00,6.70,21.45,0.00,35.62,4.13,0.00,0.00,0.00,0.00,17.38,2.82,0.00,4.98,16.91,0.00,0.00,1.33,3.33,0.00,0.00,0.12
1,44.57,46.84,10.00,19.45,16.95,0.00,0.00,2.63,26.18,0.00,0.00,7.01,21.62,0.00,35.62,4.37,0.00,0.00,0.00,0.00,17.67,2.82,0.00,4.93,17.17,0.00,0.00,1.35,3.30,0.00,0.00,0.12
1,42.74,43.04,6.00,18.63,17.10,0.00,0.00,2.65,25.94,0.00,0.00,6.87,23.73,2.44,38.36,5.68,0.00,0.00,0.00,0.00,16.65,2.82,0.00,4.44,16.86,0.00,0.00,1.32,3.25,0.00,0.00,0.12
1,43.75,45.57,6.00,19.57,17.18,0.00,0.00,2.68,25.99,0.00,0.00,6.89,23.29,2.44,36.99,5.43,0.00,0.00,0.00,0.00,17.10,4.23,0.00,4.78,17.00,0.00,0.00,1.33,3.26,0.00,0.00,0.12
1,44.15,44.30,6.00,19.84,16.74,0.00,0.00,2.55,25.66,0.00,0.00,6.87,23.61,2.44,39.73,5.49,0.00,0.00,0.00,0.00,17.27,4.23,0.00,4.84,16.47,0.00,0.00,1.25,3.32,0.00,0.00,0.13
1,45.46,46.84,6.00,20.47,16.32,0.00,0.00,2.50,25.32,0.00,0.00,6.82,24.37,2.44,39.73,5.64,0.00,0.00,0.00,0.00,17.24,4.23,0.00,4.87,16.18,0.00,0.00,1.26,3.30,0.00,0.00,0.13
1,44.91,44.30,4.00,20.66,16.18,0.00,0.00,2.47,25.58,0.00,0.00,7.09,25.19,2.44,42.47,6.37,0.00,0.00,0.00,0.00,17.03,4.23,0.00,4.80,16.01,0.00,0.00,1.24,3.38,0.00,0.00,0.13
1,45.13,45.57,4.00,20.83,15.92,0.00,0.00,2.35,26.53,0.00,0.00,7.89,25.10,2.44,43.84,6.43,0.00,0.00,0.00,0.00,17.17,4.23,0.00,4.91,16.20,0.00,0.00,1.27,3.43,0.00,0.00,0.13
1,42.57,40.51,2.00,19.41,16.37,0.00,0.00,2.48,27.37,0.00,0.00,8.52,24.46,2.44,43.84,6.15,0.00,0.00,0.00,0.00,17.29,4.23,0.00,4.96,15.82,0.00,0.00,1.26,3.31,0.00,0.00,0.13
1,41.90,39.24,2.00,19.17,16.24,0.00,0.00,2.46,27.25,0.00,0.00,8.65,24.45,2.44,42.47,6.18,0.00,0.00,0.00,0.00,17.26,4.23,0.00,4.97,16.08,0.00,0.00,1.32,3.41,0.00,0.00,0.13
1,41.29,37.97,2.00,18.99,16.77,0.00,0.00,2.64,27.11,0.00,0.00,8.56,25.25,2.44,45.21,6.39,0.00,0.00,0.00,0.00,17.60,4.23,0.00,5.25,16.44,0.00,0.00,1.41,3.56,0.00,0.00,0.14
1,40.51,37.97,2.00,18.68,17.16,0.00,0.00,2.98,27.08,0.00,0.00,8.58,26.05,2.44,47.95,6.68,0.00,0.00,0.00,0.00,17.73,4.23,0.00,5.36,16.67,0.00,0.00,1.45,3.57,0.00,0.00,0.14
1,40.72,37.97,2.00,18.75,17.21,0.00,0.00,2.96,27.63,0.00,0.00,9.04,25.71,2.44,45.21,6.70,0.00,0.00,0.00,0.00,17.64,4.23,0.00,5.37,16.83,0.00,0.00,1.46,3.67,0.00,0.00,0.14
1,39.41,36.71,2.00,17.91,17.25,0.00,0.00,2.97,27.98,0.00,0.00,9.36,25.61,2.44,43.84,6.68,0.00,0.00,0.00,0.00,17.22,4.23,0.00,5.24,16.96,0.00,0.00,1.48,3.61,0.00,0.00,0.14
1,40.44,37.97,2.00,17.64,16.87,0.00,0.00,2.82,29.00,0.00,0.00,9.57,25.75,2.44,43.84,6.68,0.00,0.00,0.00,0.00,17.75,4.23,0.00,5.36,16.91,0.00,0.00,1.50,3.62,0.00,0.00,0.14
1,40.18,37.97,2.00,17.82,16.74,0.00,0.00,2.83,28.52,0.00,0.00,9.51,25.68,2.44,43.84,6.65,0.00,0.00,0.00,0.00,17.56,4.23,0.00,5.29,16.99,0.00,0.00,1.52,3.51,0.00,0.00,0.13
1,43.24,37.97,6.00,20.79,16.87,0.00,0.00,2.85,28.56,0.00,0.00,9.69,25.25,2.44,41.10,6.63,0.00,0.00,0.00,0.00,18.46,4.23,0.00,5.76,17.55,0.00,0.00,1.53,3.70,0.00,0.00,0.15
1,43.91,37.97,8.00,22.18,16.94,0.00,0.00,2.88,28.58,0.00,0.00,9.88,25.30,2.44,42.47,6.59,0.00,0.00,0.00,0.00,18.53,4.23,0.00,5.96,17.83,0.00,3.28,1.71,3.83,0.00,0.00,0.16
1,45.35,39.24,12.00,22.94,16.54,0.00,0.00,2.85,28.29,0.00,0.00,9.58,24.71,2.44,38.36,6.63,0.00,0.00,0.00,0.00,18.22,4.23,0.00,5.82,17.39,0.00,3.28,1.67,3.96,0.00,0.00,0.18
1,44.38,37.97,16.00,21.58,15.95,0.00,0.00,2.77,28.86,0.00,0.00,10.24,24.53,2.44,38.36,6.68,0.00,0.00,0.00,0.00,17.52,4.23,0.00,5.54,17.57,0.00,3.28,1.68,3.87,0.00,0.00,0.17
1,45.16,37.97,18.00,21.40,16.02,0.00,0.00,2.75,28.59,0.00,0.00,10.13,24.25,2.44,36.99,6.70,0.00,0.00,0.00,0.00,17.27,2.82,0.00,5.03,17.65,0.00,3.28,1.71,3.78,0.00,0.00,0.17
1,44.02,36.71,18.00,20.67,15.76,0.00,0.00,2.88,28.88,0.00,0.00,10.23,24.06,2.44,36.99,6.67,0.00,0.00,0.00,0.00,17.27,1.41,0.00,4.81,17.67,0.00,3.28,1.72,3.67,0.00,0.00,0.16
1,43.02,35.44,18.00,20.14,15.93,0.00,0.00,2.96,30.05,0.00,0.00,10.83,23.87,2.44,36.99,6.60,0.00,0.00,0.00,0.00,17.90,2.82,0.00,5.21,17.80,0.00,3.28,1.81,3.68,0.00,0.00,0.16
1,43.76,34.18,18.00,20.71,16.15,0.00,0.00,3.03,30.31,0.00,0.00,11.15,21.76,0.00,34.25,5.27,0.00,0.00,0.00,0.00,18.17,2.82,0.00,5.32,17.73,0.00,3.28,1.81,3.79,0.00,0.00,0.17
1,45.78,35.44,22.00,22.03,16.01,0.00,0.00,3.09,29.87,0.00,0.00,10.91,21.48,0.00,34.25,5.09,0.00,0.00,0.00,0.00,18.54,2.82,0.00,5.60,17.44,0.00,3.28,1.77,3.81,0.00,0.00,0.17
1,45.37,36.71,22.00,21.81,16.35,0.00,0.00,3.22,29.80,0.00,0.00,10.78,21.40,0.00,34.25,5.08,0.00,0.00,0.00,0.00,18.61,2.82,0.00,5.51,17.59,0.00,3.28,1.80,3.65,0.00,0.00,0.16
1,47.11,37.97,24.00,23.23,16.50,0.00,0.00,3.24,30.40,0.00,0.00,10.93,20.86,0.00,32.88,5.01,0.00,0.00,0.00,0.00,19.91,4.23,0.00,6.43,18.15,0.00,3.28,1.82,3.67,0.00,0.00,0.16
1,46.24,36.71,24.00,22.16,16.75,0.00,0.00,3.24,30.52,0.00,0.00,10.77,19.80,0.00,30.14,4.35,0.00,0.00,0.00,0.00,19.95,4.23,0.00,6.45,18.09,0.00,3.28,1.78,3.66,0.00,0.00,0.16
1,45.87,35.44,24.00,22.58,16.75,0.00,0.00,3.26,30.20,0.00,0.00,10.30,19.56,0.00,27.40,4.27,0.00,0.00,0.00,0.00,19.90,4.23,0.00,6.47,17.85,0.00,3.28,1.74,3.65,0.00,0.00,0.16
1,47.73,39.24,28.00,23.27,16.42,0.00,0.00,3.11,30.37,0.00,0.00,10.16,19.71,0.00,27.40,4.28,0.00,0.00,0.00,0.00,20.39,5.63,0.00,6.79,18.16,0.00,3.28,1.77,3.83,0.00,0.00,0.18
1,47.75,39.24,28.00,23.34,16.85,0.00,0.00,3.20,30.09,0.00,0.00,9.91,19.50,0.00,27.40,4.12,0.00,0.00,0.00,0.00,20.89,5.63,0.00,6.98,18.97,0.00,3.28,1.89,3.82,0.00,0.00,0.17
1,50.76,44.30,32.00,24.77,15.88,0.00,0.00,2.91,30.13,0.00,0.00,9.67,18.83,0.00,24.66,4.07,0.00,0.00,0.00,0.00,21.56,5.63,0.00,6.98,18.98,0.00,3.28,1.90,3.76,0.00,0.00,0.17
1,51.16,44.30,32.00,24.98,15.25,0.00,0.00,2.55,30.65,0.00,0.00,9.70,17.80,0.00,21.92,3.56,0.00,0.00,0.00,0.00,21.52,5.63,0.00,6.93,19.92,0.00,4.92,2.02,3.82,0.00,0.00,0.17
1,53.22,48.10,32.00,25.66,15.34,0.00,0.00,2.53,30.25,0.00,0.00,9.42,17.60,0.00,20.55,3.44,0.00,0.00,0.00,0.00,21.71,5.63,0.00,6.93,19.71,0.00,4.92,2.01,3.78,0.00,0.00,0.17
1,53.80,49.37,32.00,26.36,15.25,0.00,0.00,2.55,29.14,0.00,0.00,8.62,17.33,0.00,20.55,3.31,0.00,0.00,0.00,0.00,22.43,5.63,0.00,7.03,19.22,0.00,4.92,1.99,3.79,0.00,0.00,0.17
1,52.98,48.10,32.00,26.15,15.00,0.00,0.00,2.47,28.63,0.00,0.00,8.31,17.12,0.00,21.92,3.21,0.00,0.00,0.00,0.00,22.28,5.63,0.00,7.25,19.55,0.00,4.92,1.99,3.85,0.00,0.00,0.18
1,51.45,44.30,30.00,25.14,14.98,0.00,0.00,2.48,29.33,0.00,0.00,8.53,17.00,0.00,21.92,3.22,0.00,0.00,0.00,0.00,21.88,5.63,0.00,7.01,19.27,0.00,4.92,1.95,3.87,0.00,0.00,0.18
1,49.18,43.04,28.00,23.40,14.96,0.00,0.00,2.52,29.55,0.00,0.00,8.59,17.41,0.00,26.03,3.29,0.00,0.00,0.00,0.00,21.47,5.63,0.00,6.91,18.76,0.00,4.92,1.90,3.68,0.00,0.00,0.16
1,46.09,41.77,24.00,20.80,14.35,0.00,0.00,2.33,29.60,0.00,0.00,8.54,16.69,0.00,24.66,3.04,0.00,0.00,0.00,0.00,21.16,5.63,0.00,6.62,17.49,0.00,1.64,1.62,3.61,0.00,0.00,0.14
1,44.08,37.97,20.00,19.17,14.50,0.00,0.00,2.34,29.26,0.00,0.00,8.17,16.11,0.00,23.29,2.90,0.00,0.00,0.00,0.00,21.27,5.63,0.00,6.68,17.42,0.00,1.64,1.59,3.50,0.00,0.00,0.13
1,43.43,36.71,18.00,19.03,14.22,0.00,0.00,2.23,29.25,0.00,0.00,7.55,16.06,0.00,23.29,2.76,0.00,0.00,0.00,0.00,21.33,5.63,0.00,6.75,17.23,0.00,1.64,1.57,3.44,0.00,0.00,0.13
1,39.82,32.91,14.00,15.85,14.04,0.00,0.00,2.24,28.93,0.00,0.00,7.35,15.99,0.00,23.29,2.67,0.00,0.00,0.00,0.00,20.28,5.63,0.00,6.23,17.01,0.00,1.64,1.54,3.58,0.00,0.00,0.13
1,39.21,31.65,14.00,15.39,13.84,0.00,0.00,2.19,29.92,0.00,0.00,7.61,16.15,0.00,23.29,2.70,0.00,0.00,0.00,0.00,20.00,5.63,0.00,6.03,17.19,0.00,1.64,1.54,3.53,0.00,0.00,0.13
0,40.06,31.65,14.00,15.60,13.96,0.00,0.00,2.06,30.12,0.00,0.00,7.84,15.43,0.00,20.55,2.41,0.00,0.00,0.00,0.00,19.78,5.63,0.00,6.00,17.53,0.00,1.64,1.56,3.69,0.00,0.00,0.14
0,37.76,30.38,14.00,14.73,13.78,0.00,0.00,2.05,30.58,0.00,0.00,7.96,15.77,0.00,21.92,2.53,0.00,0.00,0.00,0.00,18.76,4.23,0.00,5.49,17.94,0.00,1.64,1.56,3.59,0.00,0.00,0.13
0,35.40,26.58,12.00,13.48,13.73,0.00,0.00,1.97,30.44,0.00,0.00,7.87,15.53,0.00,20.55,2.54,0.00,0.00,0.00,0.00,18.34,4.23,0.00,5.37,17.78,0.00,1.64,1.55,3.55,0.00,0.00,0.13
0,34.08,25.32,10.00,12.05,13.24,0.00,0.00,1.85,30.93,0.00,0.00,8.03,15.36,0.00,19.18,2.48,0.00,0.00,0.00,0.00,17.93,2.82,0.00,4.92,18.00,0.00,1.64,1.56,3.68,0.00,0.00,0.14
0,30.78,21.52,8.00,9.91,13.07,0.00,0.00,1.74,30.28,0.00,0.00,7.76,15.19,0.00,19.18,2.33,0.00,0.00,0.00,0.00,16.57,1.41,0.00,4.01,17.85,0.00,1.64,1.57,3.58,0.00,0.00,0.13
0,29.07,17.72,8.00,8.95,12.86,0.00,0.00,1.75,31.08,0.00,0.00,7.88,15.45,0.00,20.55,2.38,0.00,0.00,0.00,0.00,16.58,1.41,0.00,3.89,17.71,0.00,1.64,1.56,3.51,0.00,0.00,0.13
0,28.91,17.72,8.00,8.61,13.19,0.00,0.00,1.79,31.15,0.00,0.00,8.07,15.52,0.00,21.92,2.34,0.00,0.00,0.00,0.00,17.12,1.41,0.00,4.03,18.02,0.00,1.64,1.61,3.51,0.00,0.00,0.12
0,27.40,15.19,4.00,8.37,13.14,0.00,0.00,1.78,30.66,0.00,0.00,7.89,15.14,0.00,21.92,2.30,0.00,0.00,0.00,0.00,16.72,1.41,0.00,3.88,17.67,0.00,1.64,1.58,3.31,0.00,0.00,0.11
0,26.81,13.92,4.00,7.55,13.09,0.00,0.00,1.76,30.95,0.00,0.00,8.09,15.22,0.00,21.92,2.37,0.00,0.00,0.00,0.00,15.70,0.00,0.00,3.28,17.27,0.00,1.64,1.48,3.20,0.00,0.00,0.11
0,24.43,10.13,0.00,6.66,13.33,0.00,0.00,1.80,30.97,0.00,0.00,8.13,15.60,0.00,23.29,2.42,0.00,0.00,0.00,0.00,14.99,0.00,0.00,3.08,16.66,0.00,1.64,1.37,3.19,0.00,0.00,0.11
0,23.84,8.86,0.00,5.96,13.38,0.00,0.00,1.83,30.62,0.00,0.00,7.86,15.74,0.00,23.29,2.41,0.00,0.00,0.00,0.00,15.01,0.00,0.00,3.01,15.72,0.00,0.00,1.18,3.10,0.00,0.00,0.10
0,22.48,6.33,0.00,5.40,13.43,0.00,0.00,1.81,30.84,0.00,0.00,7.95,15.79,0.00,23.29,2.43,0.00,0.00,0.00,0.00,15.20,0.00,0.00,3.05,16.28,0.00,1.64,1.28,3.10,0.00,0.00,0.10
0,21.24,3.80,0.00,4.89,13.40,0.00,0.00,1.78,31.69,0.00,0.00,8.42,15.87,0.00,23.29,2.50,0.00,0.00,0.00,0.00,15.22,0.00,0.00,3.11,16.60,0.00,1.64,1.32,3.02,0.00,0.00,0.10
0,20.10,2.53,0.00,3.99,13.21,0.00,0.00,1.74,31.60,0.00,0.00,8.71,15.91,0.00,20.55,2.56,0.00,0.00,0.00,0.00,14.66,0.00,0.00,2.72,16.60,0.00,1.64,1.35,2.96,0.00,0.00,0.10
0,19.66,2.53,0.00,3.92,13.66,0.00,0.00,1.85,31.14,0.00,0.00,8.54,16.56,0.00,23.29,2.71,0.00,0.00,0.00,0.00,14.41,0.00,0.00,2.73,16.30,0.00,1.64,1.31,3.01,0.00,0.00,0.10
0,19.47,2.53,0.00,3.77,14.12,0.00,0.00,1.97,31.49,0.00,0.00,8.81,16.02,0.00,19.18,2.62,0.00,0.00,0.00,0.00,14.41,0.00,0.00,2.68,16.10,0.00,1.64,1.25,3.13,0.00,0.00,0.11
0,18.83,1.27,0.00,3.48,14.46,0.00,0.00,2.04,31.32,0.00,0.00,8.68,16.28,0.00,19.18,2.64,0.00,0.00,0.00,0.00,14.03,0.00,0.00,2.51,16.06,0.00,1.64,1.24,3.01,0.00,0.00,0.10
0,19.08,1.27,0.00,3.66,14.81,0.00,0.00,2.15,31.45,0.00,0.00,8.69,16.36,0.00,19.18,2.66,0.00,0.00,0.00,0.00,14.47,0.00,0.00,2.71,16.48,0.00,3.28,1.31,3.20,0.00,0.00,0.12
0,19.39,2.53,0.00,3.99,14.78,0.00,0.00,2.20,32.28,0.00,0.00,8.99,16.09,0.00,19.18,2.62,0.00,0.00,0.00,0.00,14.44,0.00,0.00,2.58,16.51,0.00,3.28,1.32,3.25,0.00,0.00,0.12
0,19.16,2.53,0.00,3.90,14.71,0.00,0.00,2.18,31.82,0.00,0.00,8.87,16.04,0.00,17.81,2.59,0.00,0.00,0.00,0.00,14.82,0.00,0.00,2.59,16.92,0.00,4.92,1.38,3.18,0.00,0.00,0.12
0,19.38,2.53,0.00,3.91,14.99,0.00,0.00,2.26,30.88,0.00,0.00,8.20,15.87,0.00,17.81,2.50,0.00,0.00,0.00,0.00,14.30,0.00,0.00,2.44,16.97,0.00,4.92,1.40,3.21,0.00,0.00,0.12
0,19.40,3.80,0.00,3.87,14.69,0.00,0.00,2.14,29.19,0.00,0.00,7.14,15.74,0.00,17.81,2.46,0.00,0.00,0.00,0.00,14.23,0.00,0.00,2.43,16.77,0.00,4.92,1.39,3.11,0.00,0.00,0.11
0,19.47,3.80,0.00,3.81,14.20,0.00,0.00,2.04,27.99,0.00,0.00,6.40,15.50,0.00,17.81,2.37,0.00,0.00,0.00,0.00,13.85,0.00,0.00,2.29,15.78,0.00,4.92,1.28,3.17,0.00,0.00,0.12
0,19.39,3.80,0.00,3.78,13.82,0.00,0.00,1.97,27.98,0.00,0.00,6.39,15.42,0.00,16.44,2.31,0.00,0.00,0.00,0.00,13.91,0.00,0.00,2.30,15.73,0.00,4.92,1.27,3.31,0.00,0.00,0.13
0,19.54,3.80,0.00,3.82,13.94,0.00,0.00,1.96,27.88,0.00,0.00,6.32,15.31,0.00,17.81,2.29,0.00,0.00,0.00,0.00,13.58,0.00,0.00,2.18,16.06,0.00,4.92,1.33,3.27,0.00,0.00,0.12
0,20.19,3.80,0.00,4.01,14.14,0.00,0.00,2.02,27.58,0.00,0.00,6.32,15.02,0.00,16.44,2.25,0.00,0.00,0.00,0.00,13.50,0.00,0.00,2.17,16.32,0.00,8.20,1.38,3.25,0.00,0.00,0.12
0,20.63,3.80,0.00,4.14,14.30,0.00,0.00,1.98,28.82,0.00,0.00,6.53,15.39,0.00,16.44,2.39,0.00,0.00,0.00,0.00,13.40,0.00,0.00,2.10,16.89,0.00,8.20,1.50,3.32,0.00,0.00,0.12
0,19.62,2.53,0.00,3.78,13.98,0.00,0.00,1.90,27.61,0.00,0.00,6.14,15.03,0.00,15.07,2.32,0.00,0.00,0.00,0.00,13.24,0.00,0.00,2.08,16.42,0.00,8.20,1.47,3.32,0.00,0.00,0.12
0,19.59,2.53,0.00,3.83,14.44,0.00,0.00,2.00,26.74,0.00,0.00,5.75,15.08,0.00,15.07,2.33,0.00,0.00,0.00,0.00,12.81,0.00,0.00,2.00,16.38,0.00,8.20,1.46,3.48,0.00,0.00,0.13
0,19.63,2.53,0.00,3.79,14.21,0.00,0.00,2.03,26.99,0.00,0.00,5.86,15.42,0.00,16.44,2.35,0.00,0.00,0.00,0.00,12.72,0.00,0.00,1.99,16.97,0.00,8.20,1.58,3.57,0.00,0.00,0.13
0,19.83,2.53,0.00,3.86,14.21,0.00,0.00,2.04,26.93,0.00,0.00,5.75,15.14,0.00,16.44,2.27,0.00,0.00,0.00,0.00,12.63,0.00,0.00,2.03,17.09,0.00,8.20,1.67,3.60,0.00,0.00,0.13
0,19.72,2.53,0.00,3.80,13.92,0.00,0.00,1.97,27.46,0.00,0.00,5.87,14.93,0.00,16.44,2.22,0.00,0.00,0.00,0.00,12.08,0.00,0.00,1.90,17.25,0.00,8.20,1.69,3.70,0.00,0.00,0.14
0,19.96,2.53,0.00,3.91,14.57,0.00,0.00,2.05,27.70,0.00,0.00,5.91,15.18,0.00,19.18,2.30,0.00,0.00,0.00,0.00,11.81,0.00,0.00,1.88,16.69,0.00,6.56,1.60,3.67,0.00,0.00,0.13
0,20.28,2.53,0.00,3.87,14.56,0.00,0.00,2.17,26.89,0.00,0.00,5.56,14.97,0.00,17.81,2.29,0.00,0.00,0.00,0.00,11.32,0.00,0.00,1.76,16.77,0.00,6.56,1.68,3.67,0.00,0.00,0.13
0,20.82,3.80,0.00,4.12,15.27,0.00,0.00,2.46,26.56,0.00,0.00,5.27,15.04,0.00,19.18,2.27,0.00,0.00,0.00,0.00,11.50,0.00,0.00,1.81,16.74,0.00,6.56,1.68,3.78,0.00,0.00,0.14
0,20.78,3.80,0.00,4.08,15.00,0.00,0.00,2.39,26.98,0.00,0.00,5.26,14.63,0.00,16.44,2.17,0.00,0.00,0.00,0.00,11.62,0.00,0.00,1.76,17.01,0.00,6.56,1.67,3.71,0.00,0.00,0.13
0,20.68,3.80,0.00,4.08,14.37,0.00,0.00,2.23,26.12,0.00,0.00,4.68,14.42,0.00,16.44,2.12,0.00,0.00,0.00,0.00,11.36,0.00,0.00,1.72,17.05,0.00,6.56,1.68,3.60,0.00,0.00,0.13
0,21.24,3.80,0.00,4.25,14.28,0.00,0.00,2.19,26.13,0.00,0.00,4.69,14.46,0.00,17.81,2.15,0.00,0.00,0.00,0.00,11.36,0.00,0.00,1.66,17.14,0.00,6.56,1.70,3.59,0.00,0.00,0.13
0,20.65,3.80,0.00,4.01,14.24,0.00,0.00,2.17,25.75,0.00,0.00,4.48,14.62,0.00,19.18,2.17,0.00,0.00,0.00,0.00,10.76,0.00,0.00,1.48,17.29,0.00,6.56,1.73,3.49,0.00,0.00,0.12
0,19.76,2.53,0.00,3.47,14.08,0.00,0.00,2.04,24.60,0.00,0.00,4.19,14.66,0.00,17.81,2.23,0.00,0.00,0.00,0.00,10.36,0.00,0.00,1.40,16.30,0.00,4.92,1.60,3.36,0.00,0.00,0.11
0,19.65,2.53,0.00,3.44,14.23,0.00,0.00,2.07,24.26,0.00,0.00,4.05,14.80,0.00,17.81,2.20,0.00,0.00,0.00,0.00,10.20,0.00,0.00,1.39,16.20,0.00,3.28,1.58,3.40,0.00,0.00,0.11
0,19.36,2.53,0.00,3.34,14.22,0.00,0.00,2.01,25.15,0.00,0.00,4.62,14.61,0.00,17.81,2.18,0.00,0.00,0.00,0.00,10.27,0.00,0.00,1.44,16.27,0.00,3.28,1.56,3.46,0.00,0.00,0.11
0,19.59,2.53,0.00,3.44,14.53,0.00,0.00,2.09,25.84,0.00,0.00,5.02,14.74,0.00,17.81,2.17,0.00,0.00,0.00,0.00,10.14,0.00,0.00,1.42,16.37,0.00,3.28,1.56,3.44,0.00,0.00,0.11
0,19.05,1.27,0.00,3.23,14.56,0.00,0.00,2.10,25.73,0.00,0.00,5.19,13.97,0.00,15.07,2.02,0.00,0.00,0.00,0.00,10.24,0.00,0.00,1.47,17.26,0.00,4.92,1.66,3.53,0.00,0.00,0.12
0,20.02,2.53,0.00,3.59,15.05,0.00,0.00,2.17,26.03,0.00,0.00,5.44,14.07,0.00,15.07,2.07,0.00,0.00,0.00,0.00,10.63,0.00,0.00,1.59,17.32,0.00,4.92,1.68,3.41,0.00,0.00,0.12
0,19.80,2.53,0.00,3.55,15.03,0.00,0.00,2.17,26.76,0.00,0.00,5.82,14.11,0.00,15.07,2.07,0.00,0.00,0.00,0.00,10.80,0.00,0.00,1.62,17.37,0.00,6.56,1.69,3.32,0.00,0.00,0.12
0,19.16,2.53,0.00,3.32,15.01,0.00,0.00,2.17,27.11,0.00,0.00,6.01,14.32,0.00,15.07,2.16,0.00,0.00,0.00,0.00,10.77,0.00,0.00,1.61,17.16,0.00,4.92,1.66,3.33,0.00,0.00,0.12
0,19.17,2.53,0.00,3.42,15.39,0.00,0.00,2.26,26.09,0.00,0.00,5.93,13.82,0.00,15.07,2.07,0.00,0.00,0.00,0.00,10.61,0.00,0.00,1.57,17.16,0.00,4.92,1.60,3.24,0.00,0.00,0.12
0,19.32,2.53,0.00,3.24,15.73,0.00,0.00,2.36,25.84,0.00,0.00,5.82,13.44,0.00,15.07,1.97,0.00,0.00,0.00,0.00,10.57,0.00,0.00,1.54,17.48,0.00,4.92,1.62,3.29,0.00,0.00,0.12
0,18.71,2.53,0.00,3.14,15.31,0.00,0.00,2.31,26.54,0.00,0.00,6.00,13.64,0.00,15.07,2.04,0.00,0.00,0.00,0.00,10.68,0.00,0.00,1.56,17.92,0.00,6.56,1.68,3.26,0.00,0.00,0.12
0,19.06,2.53,0.00,3.18,14.82,0.00,0.00,2.20,26.39,0.00,0.00,5.96,13.24,0.00,13.70,1.94,0.00,0.00,0.00,0.00,11.11,0.00,0.00,1.60,17.74,0.00,6.56,1.60,3.23,0.00,0.00,0.12
0,19.67,5.06,0.00,3.34,15.00,0.00,0.00,2.20,26.16,0.00,0.00,5.83,13.40,0.00,13.70,1.95,0.00,0.00,0.00,0.00,11.02,0.00,0.00,1.63,17.66,0.00,8.20,1.62,3.15,0.00,0.00,0.11
0,19.74,5.06,0.00,3.34,14.84,0.00,0.00,2.19,26.63,0.00,0.00,5.92,13.43,0.00,13.70,1.96,0.00,0.00,0.00,0.00,11.18,0.00,0.00,1.68,17.89,0.00,8.20,1.63,3.08,0.00,0.00,0.11
0,19.80,6.33,0.00,3.50,14.33,0.00,0.00,2.12,26.78,0.00,0.00,6.14,13.12,0.00,12.33,1.90,0.00,0.00,0.00,0.00,11.16,0.00,0.00,1.68,17.94,0.00,8.20,1.67,2.99,0.00,0.00,0.11
0,20.41,7.59,0.00,3.90,13.87,0.00,0.00,1.96,25.95,0.00,0.00,5.99,13.04,0.00,12.33,1.85,0.00,0.00,0.00,0.00,11.21,0.00,0.00,1.70,17.73,0.00,8.20,1.56,3.05,0.00,0.00,0.11
0,19.26,6.33,0.00,3.57,13.04,0.00,0.00,1.64,25.55,0.00,0.00,5.86,13.13,0.00,10.96,1.84,0.00,0.00,0.00,0.00,10.97,0.00,0.00,1.58,17.35,0.00,8.20,1.49,3.00,0.00,0.00,0.11
0,20.15,6.33,0.00,3.71,13.46,0.00,0.00,1.69,25.14,0.00,0.00,5.78,12.71,0.00,10.96,1.78,0.00,0.00,0.00,0.00,11.02,0.00,0.00,1.59,17.47,0.00,8.20,1.54,2.98,0.00,0.00,0.11
0,20.66,6.33,0.00,3.80,13.51,0.00,0.00,1.68,25.29,0.00,0.00,5.97,13.08,0.00,12.33,1.93,0.00,0.00,0.00,0.00,10.75,0.00,0.00,1.58,18.11,0.00,11.48,1.63,3.19,0.00,0.00,0.13
0,20.10,6.33,0.00,3.66,13.68,0.00,0.00,1.69,25.68,0.00,0.00,6.09,12.99,0.00,9.59,1.90,0.00,0.00,0.00,0.00,10.58,0.00,0.00,1.55,18.37,0.00,11.48,1.63,3.14,0.00,0.00,0.12
0,20.60,6.33,0.00,3.67,13.38,0.00,0.00,1.67,25.63,0.00,0.00,6.02,12.74,0.00,8.22,1.82,0.00,0.00,0.00,0.00,11.14,0.00,0.00,1.76,18.91,0.00,11.48,1.66,3.05,0.00,0.00,0.12
0,20.26,6.33,0.00,3.59,13.55,0.00,0.00,1.72,25.80,0.00,0.00,6.11,12.51,0.00,8.22,1.73,0.00,0.00,0.00,0.00,11.15,0.00,0.00,1.77,19.28,0.00,11.48,1.68,3.19,0.00,0.00,0.13
0,20.45,6.33,0.00,3.67,13.58,0.00,0.00,1.74,27.18,0.00,0.00,6.60,12.89,0.00,9.59,1.88,0.00,0.00,0.00,0.00,11.26,0.00,0.00,1.80,19.65,0.00,11.48,1.72,3.17,0.00,0.00,0.13
0,20.94,6.33,0.00,3.70,13.56,0.00,0.00,1.78,26.49,0.00,0.00,6.18,12.69,0.00,8.22,1.77,0.00,0.00,0.00,0.00,11.17,0.00,0.00,1.78,20.04,0.00,11.48,1.90,3.13,0.00,0.00,0.13
0,21.51,7.59,0.00,3.96,13.46,0.00,0.00,1.72,25.86,0.00,0.00,5.68,13.09,0.00,9.59,1.84,0.00,0.00,0.00,0.00,11.93,1.41,0.00,2.27,20.21,0.00,11.48,1.99,3.32,0.00,0.00,0.14
0,21.34,7.59,0.00,3.99,13.76,0.00,0.00,1.76,25.31,0.00,0.00,5.38,13.50,0.00,10.96,1.89,0.00,0.00,0.00,0.00,11.89,1.41,0.00,2.25,19.61,0.00,9.84,1.96,3.08,0.00,0.00,0.12
0,21.32,7.59,0.00,3.82,13.37,0.00,0.00,1.70,24.98,0.00,0.00,5.10,13.35,0.00,10.96,1.83,0.00,0.00,0.00,0.00,11.63,1.41,0.00,2.14,19.75,0.00,9.84,1.95,3.11,0.00,0.00,0.12
0,22.17,7.59,0.00,4.09,13.66,0.00,0.00,1.76,24.89,0.00,0.00,4.94,13.53,0.00,9.59,1.85,0.00,0.00,0.00,0.00,11.66,1.41,0.00,2.19,19.44,0.00,8.20,1.91,3.22,0.00,0.00,0.12
0,22.81,7.59,0.00,4.25,13.26,0.00,0.00,1.72,25.01,0.00,0.00,4.79,13.62,0.00,9.59,1.81,0.00,0.00,0.00,0.00,11.15,1.41,0.00,2.14,18.73,0.00,6.56,1.79,3.21,0.00,0.00,0.12
0,22.69,7.59,0.00,4.30,13.10,0.00,0.00,1.69,24.72,0.00,0.00,4.61,13.42,0.00,8.22,1.68,0.00,0.00,0.00,0.00,11.33,1.41,0.00,2.15,18.82,0.00,6.56,1.83,3.24,0.00,0.00,0.12
0,22.56,7.59,0.00,4.28,12.52,0.00,0.00,1.54,24.12,0.00,0.00,4.43,13.58,0.00,8.22,1.67,0.00,0.00,0.00,0.00,11.18,1.41,0.00,2.09,18.30,0.00,6.56,1.78,3.25,0.00,0.00,0.12
0,22.64,7.59,0.00,4.25,12.55,0.00,0.00,1.54,24.46,0.00,0.00,4.51,13.99,0.00,10.96,1.68,0.00,0.00,0.00,0.00,11.05,1.41,0.00,2.06,17.79,0.00,4.92,1.70,3.13,0.00,0.00,0.11
0,22.48,7.59,0.00,4.23,12.62,0.00,0.00,1.56,23.05,0.00,0.00,4.11,13.84,0.00,10.96,1.69,0.00,0.00,0.00,0.00,11.33,1.41,0.00,2.13,18.19,0.00,6.56,1.76,3.17,0.00,0.00,0.12
0,21.72,5.06,0.00,4.04,12.87,0.00,0.00,1.65,23.06,0.00,0.00,4.11,13.45,0.00,9.59,1.65,0.00,0.00,0.00,0.00,11.17,1.41,0.00,2.05,18.10,0.00,6.56,1.77,3.27,0.00,0.00,0.13
0,22.09,5.06,0.00,4.17,12.63,0.00,0.00,1.54,23.68,0.00,0.00,4.29,13.83,0.00,10.96,1.73,0.00,0.00,0.00,0.00,11.08,1.41,0.00,2.10,17.91,0.00,6.56,1.72,3.24,0.00,0.00,0.13
0,21.55,3.80,0.00,4.01,12.67,0.00,0.00,1.56,22.73,0.00,0.00,3.96,13.84,0.00,9.59,1.74,0.00,0.00,0.00,0.00,11.26,1.41,0.00,2.14,17.58,0.00,6.56,1.67,3.31,0.00,0.00,0.13
0,21.07,2.53,0.00,3.55,12.62,0.00,0.00,1.54,23.21,0.00,0.00,4.03,13.74,0.00,9.59,1.69,0.00,0.00,0.00,0.00,11.50,1.41,0.00,2.16,17.72,0.00,6.56,1.75,3.33,0.00,0.00,0.13
0,21.24,2.53,0.00,3.54,12.63,0.00,0.00,1.54,23.61,0.00,0.00,4.12,14.04,0.00,13.70,1.79,0.00,0.00,0.00,0.00,11.51,1.41,0.00,2.17,18.32,0.00,6.56,1.80,3.36,0.00,0.00,0.13
0,20.99,2.53,0.00,3.59,12.67,0.00,0.00,1.52,23.85,0.00,0.00,4.23,14.11,0.00,13.70,1.80,0.00,0.00,0.00,0.00,11.55,1.41,0.00,2.22,18.01,0.00,6.56,1.76,3.42,0.00,0.00,0.13
0,20.29,2.53,0.00,3.46,12.92,0.00,0.00,1.61,24.19,0.00,0.00,4.34,13.87,0.00,13.70,1.69,0.00,0.00,0.00,0.00,12.17,1.41,0.00,2.41,16.99,0.00,3.28,1.66,3.25,0.00,0.00,0.12
0,20.31,2.53,0.00,3.48,12.78,0.00,0.00,1.58,23.99,0.00,0.00,4.28,14.10,0.00,13.70,1.74,0.00,0.00,0.00,0.00,12.21,1.41,0.00,2.42,16.91,0.00,3.28,1.68,3.20,0.00,0.00,0.12
0,20.26,3.80,0.00,3.49,13.08,0.00,0.00,1.69,24.46,0.00,0.00,4.48,14.69,0.00,15.07,1.95,0.00,0.00,0.00,0.00,11.81,1.41,0.00,2.22,16.62,0.00,3.28,1.68,3.45,0.00,0.00,0.13
0,20.49,3.80,0.00,3.75,12.86,0.00,0.00,1.67,24.43,0.00,0.00,4.51,14.73,0.00,16.44,1.97,0.00,0.00,0.00,0.00,12.16,1.41,0.00,2.36,16.58,0.00,3.28,1.69,3.31,0.00,0.00,0.12
0,21.62,6.33,0.00,4.10,12.65,0.00,0.00,1.65,22.84,0.00,0.00,3.81,14.35,0.00,15.07,1.82,0.00,0.00,0.00,0.00,11.82,1.41,0.00,2.29,16.35,0.00,3.28,1.71,3.28,0.00,0.00,0.12
0,22.41,6.33,0.00,4.26,12.54,0.00,0.00,1.59,23.43,0.00,0.00,4.13,14.45,0.00,15.07,1.83,0.00,0.00,0.00,0.00,11.74,1.41,0.00,2.23,15.20,0.00,3.28,1.46,3.45,0.00,0.00,0.13
0,22.19,6.33,0.00,4.33,13.08,0.00,0.00,1.75,24.25,0.00,0.00,4.26,14.04,0.00,13.70,1.75,0.00,0.00,0.00,0.00,11.12,0.00,0.00,1.84,14.77,0.00,3.28,1.35,3.20,0.00,0.00,0.12
0,22.29,6.33,0.00,4.32,12.81,0.00,0.00,1.70,24.14,0.00,0.00,4.30,14.55,0.00,15.07,1.96,0.00,0.00,0.00,0.00,11.16,0.00,0.00,1.77,14.79,0.00,3.28,1.32,3.24,0.00,0.00,0.12
0,21.89,5.06,0.00,4.23,12.80,0.00,0.00,1.72,23.97,0.00,0.00,4.29,14.49,0.00,15.07,1.95,0.00,0.00,0.00,0.00,10.83,0.00,0.00,1.74,14.83,0.00,3.28,1.29,3.20,0.00,0.00,0.12
0,21.23,5.06,0.00,4.13,13.12,0.00,0.00,1.75,23.87,0.00,0.00,4.34,14.55,0.00,16.44,2.01,0.00,0.00,0.00,0.00,10.96,0.00,0.00,1.76,15.85,0.00,3.28,1.50,3.08,0.00,0.00,0.11
0,20.99,5.06,0.00,4.09,13.16,0.00,0.00,1.73,22.84,0.00,0.00,4.16,15.39,0.00,17.81,2.43,0.00,0.00,0.00,0.00,11.12,0.00,0.00,1.74,16.09,0.00,3.28,1.55,3.13,0.00,0.00,0.12
0,20.98,5.06,0.00,4.05,13.46,0.00,0.00,1.80,23.80,0.00,0.00,4.63,15.58,0.00,19.18,2.54,0.00,0.00,0.00,0.00,11.58,0.00,0.00,1.87,15.90,0.00,3.28,1.51,3.26,0.00,0.00,0.13
0,20.60,5.06,0.00,3.92,13.66,0.00,0.00,1.83,24.15,0.00,0.00,4.73,15.80,0.00,20.55,2.57,0.00,0.00,0.00,0.00,11.46,0.00,0.00,1.86,15.96,0.00,3.28,1.52,3.17,0.00,0.00,0.12
0,20.72,5.06,0.00,4.01,13.24,0.00,0.00,1.75,23.85,0.00,0.00,4.66,15.70,0.00,17.81,2.64,0.00,0.00,0.00,0.00,11.68,0.00,0.00,1.95,16.57,0.00,3.28,1.61,3.23,0.00,0.00,0.13
0,20.46,5.06,0.00,4.05,13.62,0.00,0.00,1.94,24.99,0.00,0.00,5.14,15.51,0.00,17.81,2.61,0.00,0.00,0.00,0.00,11.66,0.00,0.00,1.96,16.27,0.00,1.64,1.55,3.11,0.00,0.00,0.12
0,20.56,5.06,0.00,4.05,13.73,0.00,0.00,1.98,25.15,0.00,0.00,5.20,16.11,0.00,19.18,2.74,0.00,0.00,0.00,0.00,11.54,0.00,0.00,1.98,15.73,0.00,0.00,1.43,3.15,0.00,0.00,0.12
0,20.76,5.06,0.00,4.13,13.91,0.00,0.00,2.11,24.37,0.00,0.00,5.04,16.05,0.00,20.55,2.67,0.00,0.00,0.00,0.00,11.65,0.00,0.00,1.93,16.01,0.00,0.00,1.48,3.25,0.00,0.00,0.13
0,20.60,5.06,0.00,3.98,13.80,0.00,0.00,2.11,25.15,0.00,0.00,5.34,16.25,0.00,20.55,2.78,0.00,0.00,0.00,0.00,11.47,0.00,0.00,1.89,16.30,0.00,0.00,1.51,3.24,0.00,0.00,0.13
0,20.49,5.06,0.00,3.99,13.96,0.00,0.00,2.14,25.37,0.00,0.00,5.38,16.25,0.00,21.92,2.80,0.00,0.00,0.00,0.00,11.58,0.00,0.00,1.96,15.84,0.00,0.00,1.43,3.19,0.00,0.00,0.13
0,20.39,5.06,0.00,4.02,14.88,0.00,0.00,2.41,25.16,0.00,0.00,5.29,15.59,0.00,17.81,2.69,0.00,0.00,0.00,0.00,11.30,0.00,0.00,1.92,16.05,0.00,0.00,1.45,3.23,0.00,0.00,0.13
0,20.29,5.06,0.00,3.89,15.00,0.00,0.00,2.45,25.13,0.00,0.00,5.19,15.61,0.00,17.81,2.66,0.00,0.00,0.00,0.00,11.60,0.00,0.00,1.96,15.56,0.00,0.00,1.39,3.12,0.00,0.00,0.13
0,20.76,5.06,0.00,3.96,14.40,0.00,0.00,2.29,24.80,0.00,0.00,4.93,15.45,0.00,16.44,2.62,0.00,0.00,0.00,0.00,11.27,0.00,0.00,1.83,15.90,0.00,0.00,1.43,3.15,0.00,0.00,0.13
0,20.82,5.06,0.00,3.95,14.02,0.00,0.00,2.26,25.11,0.00,0.00,5.02,15.10,0.00,16.44,2.58,0.00,0.00,0.00,0.00,11.10,0.00,0.00,1.79,16.37,0.00,1.64,1.52,3.27,0.00,0.00,0.14
0,21.96,7.59,0.00,4.49,13.83,0.00,0.00,2.14,26.37,2.56,0.00,5.78,14.54,0.00,15.07,2.32,0.00,0.00,0.00,0.00,11.64,0.00,0.00,2.05,16.71,0.00,1.64,1.60,3.14,0.00,0.00,0.12
0,21.32,6.33,0.00,4.25,13.41,0.00,0.00,2.06,25.95,2.56,0.00,5.98,14.60,0.00,13.70,2.34,0.00,0.00,0.00,0.00,11.12,0.00,0.00,1.90,16.51,0.00,1.64,1.57,3.04,0.00,0.00,0.12
0,21.12,6.33,0.00,4.29,13.45,0.00,0.00,2.04,26.64,2.56,0.00,6.22,15.14,0.00,15.07,2.45,0.00,0.00,0.00,0.00,11.78,0.00,0.00,2.10,16.87,0.00,3.28,1.65,3.13,0.00,0.00,0.12
0,20.10,5.06,0.00,3.91,13.55,0.00,0.00,2.05,25.92,2.56,0.00,5.98,15.14,0.00,15.07,2.44,0.00,0.00,0.00,0.00,11.81,0.00,0.00,2.13,17.80,0.00,4.92,1.75,2.98,0.00,0.00,0.11
0,18.71,3.80,0.00,3.47,13.50,0.00,0.00,2.01,25.12,2.56,0.00,5.85,15.11,0.00,16.44,2.46,0.00,0.00,0.00,0.00,11.27,0.00,0.00,2.05,17.60,0.00,4.92,1.75,3.01,0.00,0.00,0.11
0,18.54,3.80,0.00,3.44,13.72,0.00,0.00,2.08,25.74,2.56,0.00,6.08,14.23,0.00,13.70,2.22,0.00,0.00,0.00,0.00,11.26,0.00,0.00,2.04,17.41,0.00,4.92,1.70,3.02,0.00,0.00,0.11
0,18.64,3.80,0.00,3.52,14.06,0.00,0.00,2.12,25.82,2.56,0.00,6.18,14.74,0.00,15.07,2.37,0.00,0.00,0.00,0.00,11.39,0.00,0.00,2.05,17.64,0.00,4.92,1.74,2.99,0.00,0.00,0.11
0,18.78,3.80,0.00,3.52,13.70,0.00,0.00,2.02,25.91,2.56,0.00,6.27,14.42,0.00,13.70,2.30,0.00,0.00,0.00,0.00,11.08,0.00,0.00,1.98,16.90,0.00,4.92,1.61,3.12,0.00,0.00,0.12
0,18.46,3.80,0.00,3.28,14.08,0.00,0.00,2.11,25.97,2.56,0.00,6.15,13.78,0.00,12.33,1.91,0.00,0.00,0.00,0.00,11.31,0.00,0.00,2.07,16.82,0.00,4.92,1.54,3.01,0.00,0.00,0.11
0,18.40,3.80,0.00,3.23,14.07,0.00,0.00,2.04,25.68,2.56,0.00,5.81,13.47,0.00,12.33,1.83,0.00,0.00,0.00,0.00,11.15,0.00,0.00,2.01,17.65,0.00,6.56,1.70,2.89,0.00,0.00,0.11
0,18.98,3.80,0.00,3.47,14.13,0.00,0.00,2.08,25.48,2.56,0.00,5.76,13.28,0.00,10.96,1.82,0.00,0.00,0.00,0.00,11.02,0.00,0.00,1.98,18.05,0.00,6.56,1.73,2.95,0.00,0.00,0.11
0,18.78,3.80,0.00,3.38,14.38,0.00,0.00,2.13,25.25,2.56,0.00,5.72,13.36,0.00,12.33,1.73,0.00,0.00,0.00,0.00,10.94,0.00,0.00,1.99,17.99,0.00,6.56,1.71,2.95,0.00,0.00,0.11
0,18.64,5.06,0.00,3.24,14.14,0.00,0.00,2.06,24.68,2.56,0.00,5.48,13.24,0.00,12.33,1.71,0.00,0.00,0.00,0.00,10.77,0.00,0.00,1.97,17.95,0.00,6.56,1.68,3.04,0.00,0.00,0.11
0,18.94,5.06,0.00,3.71,13.98,0.00,0.00,1.90,23.98,2.56,0.00,5.15,13.19,0.00,13.70,1.63,0.00,0.00,0.00,0.00,10.65,0.00,0.00,1.90,17.74,0.00,6.56,1.64,3.05,0.00,0.00,0.11
0,19.25,6.33,0.00,3.87,14.20,0.00,0.00,1.96,24.21,2.56,0.00,5.20,12.99,0.00,10.96,1.64,0.00,0.00,0.00,0.00,10.43,0.00,0.00,1.82,17.78,0.00,6.56,1.66,3.00,0.00,0.00,0.11
0,19.19,6.33,0.00,3.93,14.65,0.00,0.00,2.01,23.61,2.56,0.00,4.94,12.77,0.00,10.96,1.50,0.00,0.00,0.00,0.00,10.65,0.00,0.00,1.89,17.69,0.00,6.56,1.64,2.98,0.00,0.00,0.10
0,19.89,6.33,0.00,4.10,14.20,0.00,0.00,1.96,23.99,2.56,0.00,5.03,12.68,0.00,9.59,1.45,0.00,0.00,0.00,0.00,10.67,0.00,0.00,1.87,17.88,0.00,6.56,1.65,3.09,0.00,0.00,0.11
0,19.91,6.33,0.00,4.06,13.79,0.00,0.00,1.83,23.64,2.56,0.00,4.98,13.11,0.00,10.96,1.56,0.00,0.00,0.00,0.00,10.55,0.00,0.00,1.85,17.89,0.00,6.56,1.68,3.12,0.00,0.00,0.11
0,19.73,6.33,0.00,4.04,13.88,0.00,0.00,1.84,23.36,2.56,0.00,4.97,13.26,0.00,10.96,1.62,0.00,0.00,0.00,0.00,10.11,0.00,0.00,1.72,18.30,0.00,6.56,1.72,3.11,0.00,0.00,0.11
0,19.74,6.33,0.00,4.08,14.28,0.00,0.00,1.95,23.11,2.56,0.00,4.95,13.58,0.00,12.33,1.76,0.00,0.00,0.00,0.00,10.57,0.00,0.00,1.99,19.05,0.00,9.84,1.89,3.26,0.00,0.00,0.12
0,19.75,6.33,0.00,4.06,14.74,0.00,0.00,1.98,22.80,2.56,0.00,4.84,13.94,0.00,13.70,1.80,0.00,0.00,0.00,0.00,10.58,0.00,0.00,1.98,18.34,0.00,8.20,1.77,3.15,0.00,0.00,0.11
0,19.88,6.33,0.00,4.13,14.46,0.00,0.00,1.96,21.68,0.00,0.00,4.05,14.10,0.00,13.70,1.88,0.00,0.00,0.00,0.00,10.18,0.00,0.00,1.71,18.35,0.00,8.20,1.68,3.17,0.00,0.00,0.12
0,19.57,6.33,0.00,3.87,14.42,0.00,0.00,1.94,22.42,0.00,0.00,4.06,13.88,0.00,13.70,1.85,0.00,0.00,0.00,0.00,10.51,0.00,0.00,1.78,18.85,0.00,8.20,1.71,3.31,0.00,0.00,0.13
0,19.27,5.06,0.00,3.76,15.09,0.00,0.00,2.05,21.87,0.00,0.00,3.93,13.61,0.00,12.33,1.74,0.00,0.00,0.00,0.00,10.25,0.00,0.00,1.73,18.13,0.00,6.56,1.61,3.23,0.00,0.00,0.12
0,20.20,6.33,0.00,4.05,15.31,0.00,0.00,2.12,21.88,0.00,0.00,3.89,13.68,0.00,12.33,1.79,0.00,0.00,0.00,0.00,10.36,0.00,0.00,1.68,18.08,0.00,4.92,1.61,3.23,0.00,0.00,0.12
0,20.33,6.33,0.00,4.11,15.09,0.00,0.00,2.07,21.39,0.00,0.00,3.81,13.56,0.00,10.96,1.76,0.00,0.00,0.00,0.00,10.40,0.00,0.00,1.71,18.00,0.00,4.92,1.56,3.34,0.00,0.00,0.12
0,20.74,6.33,0.00,4.22,14.78,0.00,0.00,2.01,21.32,0.00,0.00,3.71,14.09,0.00,12.33,1.88,0.00,0.00,0.00,0.00,10.57,0.00,0.00,1.76,18.86,0.00,6.56,1.71,3.33,0.00,0.00,0.12
0,20.54,6.33,0.00,4.15,14.27,0.00,0.00,1.94,21.35,0.00,0.00,3.51,13.93,0.00,10.96,1.78,0.00,0.00,0.00,0.00,10.51,0.00,0.00,1.73,18.41,0.00,6.56,1.68,3.40,0.00,0.00,0.12
0,20.54,6.33,0.00,4.09,14.31,0.00,0.00,1.93,21.52,0.00,0.00,3.37,14.10,0.00,10.96,1.84,0.00,0.00,0.00,0.00,10.59,0.00,0.00,1.78,18.86,0.00,6.56,1.75,3.35,0.00,0.00,0.12
0,21.23,6.33,0.00,4.26,14.22,0.00,0.00,1.95,21.60,0.00,0.00,3.39,13.74,0.00,10.96,1.82,0.00,0.00,0.00,0.00,10.12,0.00,0.00,1.69,18.50,0.00,6.56,1.71,3.37,0.00,0.00,0.12
