0,27.90,16.46,0.00,7.17,13.19,0.00,0.00,1.71,25.68,2.56,0.00,7.57,16.47,0.00,12.33,3.10,0.00,0.00,0.00,0.00,12.39,1.41,0.00,2.28,15.01,0.00,4.92,1.33,3.12,0.00,0.00,0.11
0,28.43,16.46,0.00,7.22,13.42,0.00,0.00,1.74,25.17,2.56,0.00,7.25,16.74,0.00,13.70,3.18,0.00,0.00,0.00,0.00,12.44,1.41,0.00,2.28,15.49,0.00,4.92,1.36,3.16,0.00,0.00,0.11
0,29.28,17.72,0.00,7.64,13.45,0.00,0.00,1.75,24.80,2.56,0.00,7.30,16.54,0.00,12.33,3.11,0.00,0.00,0.00,0.00,12.57,1.41,0.00,2.31,15.83,0.00,4.92,1.40,3.10,0.00,0.00,0.10
0,29.82,18.99,0.00,7.85,13.34,0.00,0.00,1.77,24.20,2.56,0.00,7.05,16.61,0.00,12.33,3.12,0.00,0.00,0.00,0.00,13.03,1.41,0.00,2.50,15.64,0.00,4.92,1.42,3.23,0.00,0.00,0.11
0,27.92,17.72,0.00,6.97,13.21,0.00,0.00,1.75,24.86,2.56,0.00,7.11,16.77,0.00,12.33,3.09,0.00,0.00,0.00,0.00,12.15,0.00,0.00,2.13,15.71,0.00,4.92,1.42,3.11,0.00,0.00,0.11
0,27.35,16.46,0.00,6.61,13.30,0.00,0.00,1.77,25.25,2.56,0.00,7.36,16.71,0.00,12.33,3.04,0.00,0.00,0.00,0.00,11.71,0.00,0.00,2.05,16.43,0.00,4.92,1.54,3.10,0.00,0.00,0.11
0,26.96,16.46,0.00,6.74,13.42,0.00,0.00,1.80,24.95,2.56,0.00,7.06,16.98,0.00,13.70,3.12,0.00,0.00,0.00,0.00,11.43,0.00,0.00,1.96,16.49,0.00,3.28,1.54,3.17,0.00,0.00,0.11
0,26.92,16.46,0.00,7.00,13.40,0.00,0.00,1.82,25.49,2.56,0.00,7.11,16.86,0.00,12.33,3.06,0.00,0.00,0.00,0.00,11.39,0.00,0.00,1.94,16.35,0.00,3.28,1.53,3.16,0.00,0.00,0.11
0,26.88,16.46,0.00,6.69,13.05,0.00,0.00,1.75,25.52,2.56,0.00,7.00,16.50,0.00,12.33,2.95,0.00,0.00,0.00,0.00,11.42,0.00,0.00,1.89,16.57,0.00,3.28,1.53,3.21,0.00,0.00,0.12
0,26.67,16.46,0.00,6.58,13.09,0.00,0.00,1.80,25.48,2.56,0.00,6.57,16.53,0.00,12.33,2.93,0.00,0.00,0.00,0.00,11.05,0.00,0.00,1.82,16.44,0.00,3.28,1.40,3.37,0.00,0.00,0.13
0,27.18,16.46,0.00,6.58,13.07,0.00,0.00,1.72,25.16,2.56,0.00,6.30,16.15,0.00,10.96,2.83,0.00,0.00,0.00,0.00,11.19,1.41,0.00,2.01,16.60,0.00,3.28,1.44,3.31,0.00,0.00,0.13
0,27.06,15.19,0.00,6.44,13.15,0.00,0.00,1.69,25.07,2.56,0.00,6.41,15.66,0.00,9.59,2.66,0.00,0.00,0.00,0.00,11.37,1.41,0.00,2.02,16.63,0.00,3.28,1.44,3.39,0.00,0.00,0.13
0,27.43,15.19,0.00,6.57,13.15,0.00,0.00,1.68,25.07,2.56,0.00,6.33,15.42,0.00,8.22,2.61,0.00,0.00,0.00,0.00,11.44,1.41,0.00,2.10,16.78,0.00,3.28,1.50,3.51,0.00,0.00,0.13
0,27.26,15.19,0.00,6.54,13.14,0.00,0.00,1.67,25.18,2.56,0.00,6.27,15.89,0.00,9.59,2.71,0.00,0.00,0.00,0.00,12.13,1.41,0.00,2.18,17.49,0.00,3.28,1.57,3.51,0.00,0.00,0.13
0,26.77,13.92,0.00,6.72,12.92,0.00,0.00,1.62,25.05,2.56,0.00,6.24,15.56,0.00,9.59,2.59,0.00,0.00,0.00,0.00,12.74,1.41,0.00,2.49,17.44,0.00,3.28,1.57,3.53,0.00,0.00,0.13
0,26.83,13.92,0.00,6.74,12.77,0.00,0.00,1.60,25.15,0.00,0.00,6.06,15.51,0.00,9.59,2.58,0.00,0.00,0.00,0.00,12.81,1.41,0.00,2.51,18.17,0.00,3.28,1.68,3.54,0.00,0.00,0.13
0,27.39,13.92,0.00,7.01,12.37,0.00,0.00,1.48,24.70,0.00,0.00,5.91,15.38,0.00,9.59,2.55,0.00,0.00,0.00,0.00,12.88,1.41,0.00,2.52,17.62,0.00,0.00,1.61,3.46,0.00,0.00,0.13
0,26.91,13.92,0.00,6.79,11.86,0.00,0.00,1.38,26.09,0.00,0.00,6.52,15.99,0.00,10.96,2.76,0.00,0.00,0.00,0.00,12.93,1.41,0.00,2.57,17.06,0.00,0.00,1.47,3.40,0.00,0.00,0.13
0,28.27,15.19,0.00,7.48,11.41,0.00,0.00,1.31,25.37,0.00,0.00,6.23,16.01,0.00,12.33,2.67,0.00,0.00,0.00,0.00,13.45,1.41,0.00,2.83,17.35,0.00,0.00,1.48,3.49,0.00,0.00,0.13
0,29.62,17.72,0.00,7.87,11.23,0.00,0.00,1.29,25.13,0.00,0.00,6.23,15.98,0.00,12.33,2.65,0.00,0.00,0.00,0.00,13.89,1.41,0.00,2.98,17.67,0.00,0.00,1.55,3.54,0.00,0.00,0.13
0,29.24,16.46,0.00,7.78,11.40,0.00,0.00,1.32,25.79,0.00,0.00,6.72,15.76,0.00,12.33,2.70,0.00,0.00,0.00,0.00,13.69,1.41,0.00,2.92,17.83,0.00,0.00,1.52,3.46,0.00,0.00,0.13
0,29.21,15.19,0.00,7.64,11.25,0.00,0.00,1.27,25.91,0.00,0.00,6.63,15.86,0.00,12.33,2.75,0.00,0.00,0.00,0.00,14.71,2.82,0.00,3.45,18.09,0.00,0.00,1.58,3.39,0.00,0.00,0.12
0,28.89,15.19,0.00,7.53,11.45,0.00,0.00,1.31,25.84,0.00,0.00,6.68,15.54,0.00,9.59,2.65,0.00,0.00,0.00,0.00,15.00,2.82,0.00,3.48,18.81,0.00,1.64,1.82,3.41,0.00,0.00,0.12
0,28.66,13.92,0.00,7.37,12.08,0.00,0.00,1.52,26.77,0.00,0.00,6.94,15.34,0.00,9.59,2.64,0.00,0.00,0.00,0.00,15.32,2.82,0.00,3.60,19.20,0.00,1.64,1.85,3.48,0.00,0.00,0.13
0,30.64,16.46,2.00,8.75,12.32,0.00,0.00,1.53,26.53,0.00,0.00,6.70,15.25,0.00,9.59,2.70,0.00,0.00,0.00,0.00,15.04,2.82,0.00,3.55,19.52,0.00,1.64,1.86,3.40,0.00,0.00,0.12
0,31.38,16.46,2.00,8.89,12.40,0.00,0.00,1.51,25.70,0.00,0.00,6.65,14.92,0.00,9.59,2.68,0.00,0.00,0.00,0.00,15.56,4.23,0.00,3.72,19.66,0.00,1.64,1.85,3.48,0.00,0.00,0.12
0,31.31,16.46,2.00,8.92,12.72,0.00,0.00,1.56,25.10,0.00,0.00,6.55,14.89,0.00,9.59,2.77,0.00,0.00,0.00,0.00,15.88,4.23,0.00,3.84,19.53,0.00,1.64,1.79,3.60,0.00,0.00,0.13
0,30.69,15.19,2.00,8.35,12.61,0.00,0.00,1.51,26.31,0.00,0.00,7.50,15.12,0.00,9.59,2.93,0.00,0.00,0.00,0.00,16.32,4.23,0.00,4.03,18.63,0.00,1.64,1.69,3.48,0.00,0.00,0.13
0,32.01,17.72,6.00,8.71,13.00,0.00,0.00,1.59,26.09,0.00,0.00,7.88,15.27,0.00,9.59,2.94,0.00,0.00,0.00,0.00,17.06,4.23,0.00,4.37,18.77,0.00,1.64,1.69,3.55,0.00,0.00,0.13
0,30.97,15.19,6.00,8.41,12.80,0.00,0.00,1.57,26.31,0.00,0.00,7.92,15.30,0.00,9.59,2.89,0.00,0.00,0.00,0.00,16.88,4.23,0.00,4.36,18.62,0.00,3.28,1.69,3.48,0.00,0.00,0.13
0,30.84,15.19,6.00,8.48,12.60,0.00,0.00,1.53,25.30,0.00,0.00,7.65,15.58,0.00,10.96,2.90,0.00,0.00,0.00,0.00,16.88,4.23,0.00,4.37,18.29,0.00,3.28,1.69,3.31,0.00,0.00,0.12
0,30.22,15.19,6.00,8.22,12.55,0.00,0.00,1.49,25.61,0.00,0.00,7.77,15.54,0.00,10.96,2.90,0.00,0.00,0.00,0.00,16.18,2.82,0.00,4.06,18.06,0.00,3.28,1.64,3.37,0.00,0.00,0.13
0,30.72,16.46,6.00,8.52,12.61,0.00,0.00,1.49,25.66,0.00,0.00,7.59,15.44,0.00,10.96,2.89,0.00,0.00,0.00,0.00,16.23,2.82,0.00,4.06,18.04,0.00,3.28,1.64,3.32,0.00,0.00,0.12
0,32.05,18.99,6.00,9.27,12.52,0.00,0.00,1.48,24.96,0.00,0.00,7.47,15.62,0.00,12.33,2.93,0.00,0.00,0.00,0.00,16.38,2.82,0.00,4.14,17.76,0.00,3.28,1.57,3.26,0.00,0.00,0.12
0,31.98,18.99,6.00,9.10,12.38,0.00,0.00,1.51,24.65,0.00,0.00,7.31,15.50,0.00,12.33,2.87,0.00,0.00,0.00,0.00,16.08,2.82,0.00,4.05,17.53,0.00,3.28,1.51,3.22,0.00,0.00,0.12
0,31.38,18.99,6.00,8.72,12.16,0.00,0.00,1.44,25.34,0.00,0.00,7.61,15.76,0.00,12.33,2.96,0.00,0.00,0.00,0.00,15.74,2.82,0.00,3.88,17.39,0.00,3.28,1.49,3.23,0.00,0.00,0.12
0,32.25,20.25,6.00,8.97,12.30,0.00,0.00,1.44,24.60,0.00,0.00,7.25,15.63,0.00,12.33,2.84,0.00,0.00,0.00,0.00,15.90,2.82,0.00,3.97,17.35,0.00,3.28,1.46,3.26,0.00,0.00,0.13
0,31.92,20.25,6.00,8.77,12.37,0.00,0.00,1.47,25.10,0.00,0.00,7.30,15.55,0.00,12.33,2.81,0.00,0.00,0.00,0.00,17.21,5.63,0.00,4.84,17.62,0.00,3.28,1.46,3.37,0.00,0.00,0.13
0,33.07,24.05,10.00,9.53,12.51,0.00,0.00,1.48,24.41,0.00,0.00,6.83,15.38,0.00,10.96,2.65,0.00,0.00,0.00,0.00,17.87,5.63,0.00,5.25,17.09,0.00,3.28,1.43,3.35,0.00,0.00,0.13
0,34.72,27.85,10.00,10.10,12.81,0.00,0.00,1.50,24.13,0.00,0.00,6.64,14.95,0.00,8.22,2.55,0.00,0.00,0.00,0.00,18.81,7.04,0.00,5.61,16.97,0.00,3.28,1.41,3.39,0.00,0.00,0.14
0,33.77,29.11,10.00,10.18,13.13,0.00,0.00,1.52,24.14,0.00,0.00,6.34,14.82,0.00,8.22,2.55,0.00,0.00,0.00,0.00,18.56,7.04,0.00,6.01,16.75,0.00,3.28,1.35,3.41,0.00,0.00,0.15
0,32.61,26.58,10.00,9.77,12.66,0.00,0.00,1.49,23.39,0.00,0.00,5.79,14.34,0.00,8.22,2.35,0.00,0.00,0.00,0.00,18.15,7.04,0.00,5.92,16.65,0.00,3.28,1.33,3.40,0.00,0.00,0.14
0,32.38,26.58,10.00,9.64,12.75,0.00,0.00,1.51,23.78,0.00,0.00,6.03,14.36,0.00,9.59,2.29,0.00,0.00,0.00,0.00,17.07,5.63,0.00,5.35,17.06,0.00,3.28,1.37,3.42,0.00,0.00,0.15
0,32.57,26.58,10.00,9.76,12.38,0.00,0.00,1.45,23.60,0.00,0.00,5.91,13.91,0.00,9.59,2.11,0.00,0.00,0.00,0.00,17.18,5.63,0.00,5.42,16.00,0.00,1.64,1.12,3.28,0.00,0.00,0.14
0,33.95,29.11,10.00,10.38,12.01,0.00,0.00,1.34,23.19,0.00,0.00,5.63,14.21,0.00,10.96,2.18,0.00,0.00,0.00,0.00,17.30,5.63,0.00,5.48,15.45,0.00,1.64,1.03,3.28,0.00,0.00,0.14
0,32.05,26.58,8.00,9.04,11.50,0.00,0.00,1.18,23.38,0.00,0.00,5.74,14.25,0.00,10.96,2.11,0.00,0.00,0.00,0.00,17.30,5.63,0.00,5.58,15.17,0.00,1.64,1.00,3.22,0.00,0.00,0.14
0,30.83,25.32,8.00,8.76,11.48,0.00,0.00,1.19,23.93,0.00,0.00,5.83,14.44,0.00,12.33,2.10,0.00,0.00,0.00,0.00,16.70,5.63,0.00,5.49,14.70,0.00,1.64,0.96,3.15,0.00,0.00,0.14
0,31.19,26.58,8.00,8.87,11.72,0.00,0.00,1.31,23.85,0.00,0.00,5.56,14.58,0.00,13.70,2.01,0.00,0.00,0.00,0.00,15.93,4.23,0.00,5.14,15.09,0.00,1.64,1.04,3.01,0.00,0.00,0.13
0,32.41,29.11,8.00,9.88,11.94,0.00,0.00,1.40,22.93,0.00,0.00,4.67,14.16,0.00,12.33,1.79,0.00,0.00,0.00,0.00,16.06,4.23,0.00,5.14,15.29,0.00,1.64,1.07,3.05,0.00,0.00,0.13
0,30.80,26.58,4.00,9.26,11.58,0.00,0.00,1.28,22.90,0.00,0.00,4.44,14.04,0.00,12.33,1.78,0.00,0.00,0.00,0.00,15.25,4.23,0.00,4.76,15.42,0.00,1.64,1.05,3.04,0.00,0.00,0.13
0,31.16,27.85,4.00,9.45,11.87,0.00,0.00,1.37,22.42,0.00,0.00,4.23,13.95,0.00,12.33,1.76,0.00,0.00,0.00,0.00,15.38,4.23,0.00,4.79,15.17,0.00,0.00,1.03,2.97,0.00,0.00,0.12
0,31.74,29.11,4.00,9.63,11.97,0.00,0.00,1.35,22.67,0.00,0.00,4.26,13.70,0.00,10.96,1.69,0.00,0.00,0.00,0.00,15.64,4.23,0.00,4.83,15.35,0.00,0.00,1.03,2.96,0.00,0.00,0.12
0,31.47,27.85,4.00,9.48,12.15,0.00,0.00,1.36,22.48,0.00,0.00,4.15,13.70,0.00,10.96,1.77,0.00,0.00,0.00,0.00,15.95,4.23,0.00,4.89,15.19,0.00,0.00,1.00,2.94,0.00,0.00,0.11
0,29.98,25.32,4.00,8.89,12.14,0.00,0.00,1.38,22.95,0.00,0.00,4.29,13.99,0.00,10.96,1.83,0.00,0.00,0.00,0.00,15.90,4.23,0.00,4.88,15.40,0.00,0.00,1.00,2.97,0.00,0.00,0.12
0,28.92,22.78,4.00,8.36,12.63,0.00,0.00,1.46,24.24,0.00,0.00,4.82,13.65,0.00,9.59,1.74,0.00,0.00,0.00,0.00,15.60,4.23,0.00,4.79,16.01,0.00,0.00,1.08,3.06,0.00,0.00,0.12
0,29.17,22.78,4.00,8.42,12.66,0.00,0.00,1.52,24.38,0.00,0.00,4.80,13.70,0.00,9.59,1.79,0.00,0.00,0.00,0.00,15.83,4.23,0.00,4.87,16.38,0.00,0.00,1.15,3.04,0.00,0.00,0.12
0,29.25,21.52,4.00,8.42,13.11,0.00,0.00,1.61,24.58,0.00,0.00,4.85,13.44,0.00,9.59,1.69,0.00,0.00,0.00,0.00,16.09,4.23,0.00,5.04,16.76,0.00,0.00,1.19,3.07,0.00,0.00,0.12
0,29.05,20.25,4.00,8.29,13.30,0.00,0.00,1.68,24.51,0.00,0.00,4.80,13.52,0.00,9.59,1.72,0.00,0.00,0.00,0.00,16.32,4.23,0.00,5.16,16.46,0.00,0.00,1.16,2.95,0.00,0.00,0.11
0,28.73,20.25,4.00,8.41,13.11,0.00,0.00,1.64,25.00,0.00,0.00,4.87,13.44,0.00,9.59,1.72,0.00,0.00,0.00,0.00,15.86,2.82,0.00,4.96,16.42,0.00,0.00,1.20,2.96,0.00,0.00,0.11
0,27.30,16.46,0.00,7.52,13.48,0.00,0.00,1.72,24.26,0.00,0.00,4.70,13.44,0.00,10.96,1.74,0.00,0.00,0.00,0.00,15.03,1.41,0.00,4.12,16.83,0.00,0.00,1.23,3.15,0.00,0.00,0.12
0,25.53,12.66,0.00,7.00,13.43,0.00,0.00,1.74,24.28,0.00,0.00,4.70,13.50,0.00,10.96,1.78,0.00,0.00,0.00,0.00,14.88,1.41,0.00,4.14,17.04,0.00,0.00,1.29,3.04,0.00,0.00,0.11
0,26.58,13.92,2.00,7.39,13.65,0.00,0.00,1.78,24.47,0.00,0.00,4.89,13.35,0.00,9.59,1.75,0.00,0.00,0.00,0.00,13.50,0.00,0.00,3.03,16.96,0.00,0.00,1.29,2.94,0.00,0.00,0.10
0,26.79,13.92,2.00,7.60,13.85,0.00,0.00,1.79,24.62,0.00,0.00,4.96,14.23,0.00,10.96,1.98,0.00,0.00,0.00,0.00,13.93,0.00,0.00,3.13,17.23,0.00,0.00,1.33,3.01,0.00,0.00,0.10
0,26.31,13.92,2.00,7.53,14.04,0.00,0.00,1.84,23.74,0.00,0.00,4.55,14.12,0.00,9.59,1.94,0.00,0.00,0.00,0.00,14.16,0.00,0.00,3.15,17.29,0.00,0.00,1.32,3.06,0.00,0.00,0.10
0,26.99,16.46,2.00,7.89,14.37,0.00,0.00,1.87,23.93,0.00,0.00,4.55,14.91,0.00,12.33,2.09,0.00,0.00,0.00,0.00,15.33,0.00,0.00,3.59,17.16,0.00,0.00,1.34,3.04,0.00,0.00,0.10
0,25.97,16.46,2.00,7.39,14.80,0.00,0.00,1.98,23.16,0.00,0.00,4.39,14.50,0.00,10.96,1.99,0.00,0.00,0.00,0.00,15.78,0.00,0.00,3.84,17.87,0.00,0.00,1.42,3.15,0.00,0.00,0.11
0,26.21,17.72,2.00,7.41,15.38,0.00,0.00,2.09,22.85,0.00,0.00,4.25,14.49,0.00,12.33,1.98,0.00,0.00,0.00,0.00,15.66,0.00,0.00,3.80,18.66,0.00,1.64,1.53,3.26,0.00,0.00,0.11
0,26.81,18.99,4.00,8.07,15.34,0.00,0.00,2.11,22.55,0.00,0.00,4.00,14.15,0.00,12.33,1.91,0.00,0.00,0.00,0.00,16.16,0.00,0.00,3.88,19.31,0.00,3.28,1.71,3.21,0.00,0.00,0.11
0,26.38,17.72,4.00,7.80,15.53,0.00,0.00,2.15,22.71,0.00,0.00,4.03,14.00,0.00,10.96,1.87,0.00,0.00,0.00,0.00,16.38,0.00,0.00,3.98,20.02,0.00,4.92,1.86,3.32,0.00,0.00,0.12
0,25.13,15.19,4.00,6.81,15.08,0.00,0.00,2.00,22.76,0.00,0.00,4.09,13.83,0.00,10.96,1.84,0.00,0.00,0.00,0.00,16.71,0.00,0.00,4.04,20.04,0.00,4.92,1.86,3.28,0.00,0.00,0.12
0,25.69,15.19,4.00,6.93,15.30,0.00,0.00,2.03,22.60,0.00,0.00,4.01,14.07,0.00,12.33,1.94,0.00,0.00,0.00,0.00,16.70,0.00,0.00,3.98,20.58,0.00,6.56,1.91,3.22,0.00,0.00,0.12
0,24.69,12.66,4.00,6.63,15.37,0.00,0.00,2.15,22.46,0.00,0.00,3.94,14.20,0.00,12.33,1.99,0.00,0.00,0.00,0.00,17.11,0.00,0.00,4.20,21.14,0.00,6.56,2.04,3.31,0.00,0.00,0.13
0,24.56,11.39,4.00,6.45,15.65,0.00,0.00,2.30,22.52,0.00,0.00,3.89,14.20,0.00,12.33,2.01,0.00,0.00,0.00,0.00,17.93,1.41,0.00,4.59,21.16,0.00,6.56,2.04,3.28,0.00,0.00,0.12
0,25.17,11.39,4.00,6.54,15.80,0.00,0.00,2.32,22.33,0.00,0.00,3.91,14.06,0.00,12.33,1.92,0.00,0.00,0.00,0.00,18.74,1.41,0.00,4.90,21.52,0.00,6.56,2.09,3.30,0.00,0.00,0.12
0,25.19,11.39,4.00,6.52,15.69,0.00,0.00,2.30,21.97,0.00,0.00,3.81,13.83,0.00,12.33,1.83,0.00,0.00,0.00,0.00,19.11,1.41,0.00,4.98,21.29,0.00,6.56,2.06,3.32,0.00,0.00,0.12
0,24.96,11.39,4.00,6.58,15.35,0.00,0.00,2.30,20.82,0.00,0.00,3.34,13.84,0.00,12.33,1.81,0.00,0.00,0.00,0.00,19.05,1.41,0.00,5.00,20.93,0.00,6.56,2.01,3.30,0.00,0.00,0.12
0,25.12,11.39,4.00,6.52,15.10,0.00,0.00,2.19,20.93,0.00,0.00,3.36,13.63,0.00,10.96,1.84,0.00,0.00,0.00,0.00,19.28,1.41,0.00,5.04,20.67,0.00,6.56,1.97,3.28,0.00,0.00,0.11
0,24.84,11.39,4.00,6.59,14.71,0.00,0.00,2.08,20.60,0.00,0.00,3.14,13.89,0.00,12.33,1.89,0.00,0.00,0.00,0.00,18.89,1.41,0.00,4.79,20.54,0.00,6.56,1.96,3.37,0.00,0.00,0.12
0,24.92,11.39,4.00,6.67,14.51,0.00,0.00,2.03,20.47,0.00,0.00,3.09,13.92,0.00,10.96,1.88,0.00,0.00,0.00,0.00,18.90,1.41,0.00,4.79,20.39,0.00,6.56,1.93,3.29,0.00,0.00,0.12
0,25.07,11.39,4.00,6.70,14.96,0.00,0.00,2.12,20.91,0.00,0.00,3.25,13.81,0.00,10.96,1.84,0.00,0.00,0.00,0.00,18.34,1.41,0.00,4.53,20.30,0.00,6.56,1.94,3.27,0.00,0.00,0.12
0,25.59,12.66,4.00,7.13,14.65,0.00,0.00,2.07,21.03,0.00,0.00,3.37,13.50,0.00,9.59,1.74,0.00,0.00,0.00,0.00,19.22,1.41,0.00,4.84,20.16,0.00,6.56,1.94,3.10,0.00,0.00,0.11
0,26.81,15.19,4.00,7.53,14.74,0.00,0.00,2.01,21.69,0.00,0.00,3.68,14.10,0.00,12.33,2.01,0.00,0.00,0.00,0.00,18.90,1.41,0.00,4.82,20.32,0.00,6.56,1.95,3.08,0.00,0.00,0.11
0,27.43,15.19,4.00,8.34,14.45,0.00,0.00,1.97,21.56,0.00,0.00,3.57,14.14,0.00,13.70,1.94,0.00,0.00,0.00,0.00,19.93,4.23,0.00,5.62,20.48,0.00,6.56,1.99,3.08,0.00,0.00,0.11
0,27.16,13.92,4.00,7.97,14.63,0.00,0.00,2.00,21.68,0.00,0.00,3.74,13.63,0.00,12.33,1.84,0.00,0.00,0.00,0.00,19.74,4.23,0.00,5.60,20.47,0.00,6.56,1.96,3.04,0.00,0.00,0.11
0,28.18,15.19,4.00,8.49,14.06,0.00,0.00,1.88,22.45,0.00,0.00,4.40,13.61,0.00,12.33,1.93,0.00,0.00,0.00,0.00,20.12,4.23,0.00,5.69,20.26,0.00,6.56,1.93,3.03,0.00,0.00,0.11
0,27.32,12.66,4.00,8.21,13.97,0.00,0.00,1.87,23.12,0.00,0.00,4.92,13.32,0.00,9.59,1.95,0.00,0.00,0.00,0.00,19.25,4.23,0.00,5.35,20.05,0.00,6.56,1.90,3.19,0.00,0.00,0.11
0,28.01,12.66,4.00,8.76,13.65,0.00,0.00,1.81,25.12,0.00,0.00,5.96,14.22,0.00,12.33,2.34,0.00,0.00,0.00,0.00,18.37,4.23,0.00,4.97,19.70,0.00,6.56,1.87,3.26,0.00,0.00,0.12
0,28.62,13.92,4.00,8.92,13.26,0.00,0.00,1.74,25.91,0.00,0.00,6.54,14.66,0.00,12.33,2.52,0.00,0.00,0.00,0.00,18.36,4.23,0.00,4.88,19.10,0.00,4.92,1.79,3.16,0.00,0.00,0.11
0,27.21,11.39,2.00,8.11,12.97,0.00,0.00,1.68,25.82,0.00,0.00,6.65,14.48,0.00,10.96,2.50,0.00,0.00,0.00,0.00,18.39,4.23,0.00,4.87,18.68,0.00,3.28,1.71,3.28,0.00,0.00,0.12
0,27.33,12.66,2.00,8.18,12.45,0.00,0.00,1.53,27.29,0.00,0.00,7.24,14.76,0.00,10.96,2.51,0.00,0.00,0.00,0.00,18.50,4.23,0.00,4.84,17.89,0.00,1.64,1.57,3.18,0.00,0.00,0.11
0,28.19,15.19,2.00,8.63,12.50,0.00,0.00,1.55,26.84,0.00,0.00,7.09,15.12,0.00,12.33,2.60,0.00,0.00,0.00,0.00,19.24,7.04,0.00,5.24,17.14,0.00,1.64,1.43,3.38,0.00,0.00,0.13
0,28.27,15.19,2.00,8.62,12.48,0.00,0.00,1.58,26.65,0.00,0.00,7.05,15.25,0.00,13.70,2.57,0.00,0.00,0.00,0.00,19.27,7.04,0.00,5.27,16.91,0.00,1.64,1.44,3.39,0.00,0.00,0.14
0,29.01,16.46,2.00,8.78,12.21,0.00,0.00,1.55,26.90,0.00,0.00,7.17,15.60,0.00,15.07,2.67,0.00,0.00,0.00,0.00,21.42,11.27,1.96,7.31,16.18,0.00,0.00,1.29,3.33,0.00,0.00,0.13
0,29.59,17.72,2.00,9.24,11.89,0.00,0.00,1.36,27.24,0.00,0.00,7.18,15.57,0.00,16.44,2.66,0.00,0.00,0.00,0.00,21.85,9.86,1.96,7.87,15.88,0.00,0.00,1.27,3.33,0.00,0.00,0.13
0,29.96,18.99,2.00,9.44,11.77,0.00,0.00,1.34,27.89,0.00,0.00,7.36,16.07,0.00,17.81,2.75,0.00,0.00,0.00,0.00,21.33,9.86,1.96,7.57,15.55,0.00,0.00,1.25,3.58,0.00,0.00,0.15
0,30.04,18.99,2.00,9.40,11.72,0.00,0.00,1.33,27.93,0.00,0.00,7.33,16.19,0.00,17.81,2.76,0.00,0.00,0.00,0.00,21.04,9.86,1.96,7.49,15.54,0.00,0.00,1.27,3.55,0.00,0.00,0.16
0,31.23,22.78,2.00,9.82,11.94,0.00,0.00,1.35,27.80,0.00,0.00,7.27,16.43,0.00,19.18,2.79,0.00,0.00,0.00,0.00,21.38,9.86,1.96,7.60,15.32,0.00,0.00,1.28,3.50,0.00,0.00,0.16
0,31.36,22.78,2.00,10.01,12.26,0.00,0.00,1.41,27.74,0.00,0.00,7.17,16.29,0.00,19.18,2.69,0.00,0.00,0.00,0.00,21.70,9.86,1.96,7.84,15.13,0.00,0.00,1.25,3.63,0.00,0.00,0.17
0,31.37,24.05,2.00,10.12,12.09,0.00,0.00,1.38,27.59,0.00,0.00,7.29,16.27,0.00,17.81,2.76,0.00,0.00,0.00,0.00,21.44,9.86,1.96,7.78,14.73,0.00,0.00,1.21,3.47,0.00,0.00,0.16
0,31.75,24.05,2.00,10.23,12.28,0.00,0.00,1.39,27.52,0.00,0.00,7.31,16.28,0.00,17.81,2.78,0.00,0.00,0.00,0.00,22.18,9.86,1.96,7.95,15.51,0.00,1.64,1.41,3.60,0.00,0.00,0.17
0,30.39,24.05,2.00,9.62,12.25,0.00,0.00,1.40,26.95,0.00,0.00,7.10,16.47,0.00,17.81,2.83,0.00,0.00,0.00,0.00,21.94,9.86,1.96,8.01,15.46,0.00,1.64,1.37,3.54,0.00,0.00,0.17
0,29.57,22.78,2.00,9.27,12.18,0.00,0.00,1.34,27.96,0.00,0.00,7.48,16.82,0.00,17.81,2.92,0.00,0.00,0.00,0.00,21.15,9.86,1.96,7.76,15.55,0.00,1.64,1.36,3.58,0.00,0.00,0.17
0,28.70,20.25,2.00,8.91,12.02,0.00,0.00,1.34,27.69,0.00,0.00,7.23,15.85,0.00,15.07,2.62,0.00,0.00,0.00,0.00,21.00,9.86,1.96,7.56,16.08,0.00,3.28,1.46,3.64,0.00,0.00,0.17
0,27.32,17.72,0.00,7.99,12.28,0.00,0.00,1.38,27.99,0.00,0.00,7.36,15.86,0.00,13.70,2.66,0.00,0.00,0.00,0.00,20.18,7.04,1.96,6.97,16.19,0.00,4.92,1.47,3.67,0.00,0.00,0.17
0,26.57,17.72,0.00,7.14,12.25,0.00,0.00,1.38,27.69,0.00,0.00,7.10,16.04,0.00,13.70,2.65,0.00,0.00,0.00,0.00,20.77,7.04,1.96,7.24,16.31,0.00,4.92,1.47,3.75,0.00,0.00,0.17
0,26.38,16.46,0.00,6.77,12.36,0.00,0.00,1.44,27.33,0.00,0.00,6.57,15.53,0.00,13.70,2.49,0.00,0.00,0.00,0.00,21.11,7.04,1.96,7.33,16.84,0.00,4.92,1.64,3.79,0.00,0.00,0.18
0,26.88,17.72,0.00,6.87,12.58,0.00,0.00,1.52,26.41,0.00,0.00,6.14,15.23,0.00,13.70,2.34,0.00,0.00,0.00,0.00,21.04,7.04,1.96,7.33,17.19,0.00,4.92,1.69,3.77,0.00,0.00,0.17
0,26.89,17.72,0.00,7.05,13.00,0.00,0.00,1.57,25.31,0.00,0.00,5.22,14.79,0.00,12.33,2.05,0.00,0.00,0.00,0.00,21.16,7.04,1.96,7.41,17.46,0.00,4.92,1.75,3.63,0.00,0.00,0.17
0,25.70,15.19,0.00,6.32,13.13,0.00,0.00,1.63,25.14,0.00,0.00,5.13,14.62,0.00,12.33,2.01,0.00,0.00,0.00,0.00,21.41,7.04,1.96,7.47,17.66,0.00,4.92,1.80,3.68,0.00,0.00,0.17
0,27.00,15.19,0.00,6.81,13.25,0.00,0.00,1.62,25.73,0.00,0.00,5.66,14.94,0.00,12.33,2.12,0.00,0.00,0.00,0.00,22.01,7.04,1.96,7.82,17.69,0.00,4.92,1.70,3.57,0.00,0.00,0.16
0,28.15,17.72,0.00,7.43,13.68,0.00,0.00,1.70,24.87,0.00,0.00,5.46,14.79,0.00,12.33,2.16,0.00,0.00,0.00,0.00,22.56,7.04,1.96,8.10,18.70,0.00,6.56,1.85,3.60,0.00,0.00,0.16
0,27.53,15.19,0.00,7.21,14.57,0.00,0.00,1.97,25.94,0.00,0.00,6.00,14.81,0.00,12.33,2.21,0.00,0.00,0.00,0.00,22.17,5.63,1.96,8.03,18.54,0.00,6.56,1.84,3.57,0.00,0.00,0.16
0,27.63,16.46,0.00,7.28,14.11,0.00,0.00,1.88,25.83,0.00,0.00,5.99,14.65,0.00,10.96,2.19,0.00,0.00,0.00,0.00,22.04,4.23,1.96,7.69,18.54,0.00,6.56,1.83,3.49,0.00,0.00,0.14
0,27.05,16.46,0.00,7.28,14.18,0.00,0.00,1.85,25.30,0.00,0.00,5.85,14.02,0.00,9.59,2.01,0.00,0.00,0.00,0.00,20.85,1.41,1.96,6.95,18.65,0.00,6.56,1.87,3.55,0.00,0.00,0.14
0,26.43,15.19,0.00,6.90,13.87,0.00,0.00,1.76,26.10,0.00,0.00,6.13,14.28,0.00,9.59,2.08,0.00,0.00,0.00,0.00,18.74,0.00,0.00,5.13,18.57,0.00,6.56,1.84,3.52,0.00,0.00,0.14
0,25.85,13.92,0.00,6.72,14.08,0.00,0.00,1.77,26.68,0.00,0.00,6.66,14.35,0.00,8.22,2.04,0.00,0.00,0.00,0.00,18.09,0.00,0.00,4.83,19.06,0.00,6.56,1.92,3.33,0.00,0.00,0.13
0,26.10,13.92,0.00,6.75,14.18,0.00,0.00,1.88,26.49,0.00,0.00,6.67,13.94,0.00,8.22,2.00,0.00,0.00,0.00,0.00,18.63,0.00,0.00,5.02,19.34,0.00,6.56,1.98,3.24,0.00,0.00,0.12
0,24.52,11.39,0.00,6.31,13.94,0.00,0.00,1.85,26.02,0.00,0.00,6.71,13.84,0.00,6.85,2.01,0.00,0.00,0.00,0.00,18.32,0.00,0.00,5.00,19.09,0.00,6.56,1.92,3.21,0.00,0.00,0.11
0,25.28,11.39,0.00,6.34,13.74,0.00,0.00,1.79,26.01,0.00,0.00,6.69,14.02,0.00,8.22,2.07,0.00,0.00,0.00,0.00,18.79,1.41,0.00,5.25,19.66,0.00,6.56,2.01,3.09,0.00,0.00,0.10
0,25.66,11.39,0.00,6.44,13.81,0.00,0.00,1.82,26.15,0.00,0.00,6.54,13.66,0.00,8.22,1.94,0.00,0.00,0.00,0.00,19.25,4.23,0.00,5.84,20.09,0.00,6.56,2.05,3.24,0.00,0.00,0.11
0,25.44,11.39,0.00,6.44,13.78,0.00,0.00,1.83,27.35,2.56,0.00,7.28,14.10,0.00,9.59,2.02,0.00,0.00,0.00,0.00,19.28,4.23,0.00,5.96,19.55,0.00,4.92,1.90,3.22,0.00,0.00,0.11
0,25.11,11.39,0.00,6.30,13.46,0.00,0.00,1.77,27.69,2.56,0.00,7.48,13.92,0.00,9.59,2.00,0.00,0.00,0.00,0.00,18.99,4.23,0.00,5.69,19.46,0.00,4.92,1.88,3.31,0.00,0.00,0.11
0,25.18,11.39,0.00,6.33,13.83,0.00,0.00,1.87,27.05,2.56,0.00,7.22,13.76,0.00,9.59,2.00,0.00,0.00,0.00,0.00,19.12,4.23,0.00,5.75,19.84,0.00,6.56,1.97,3.43,0.00,0.00,0.12
0,24.97,11.39,0.00,6.22,13.81,0.00,0.00,1.85,28.22,2.56,0.00,7.92,14.21,0.00,12.33,2.15,0.00,0.00,0.00,0.00,19.15,4.23,0.00,5.82,19.82,0.00,4.92,1.95,3.45,0.00,0.00,0.13
0,24.62,11.39,0.00,6.15,13.50,0.00,0.00,1.80,28.68,2.56,0.00,7.94,14.40,0.00,12.33,2.15,0.00,0.00,0.00,0.00,18.38,4.23,0.00,5.49,19.35,0.00,3.28,1.87,3.51,0.00,0.00,0.13
0,25.09,12.66,0.00,6.33,13.42,0.00,0.00,1.77,28.53,2.56,0.00,8.09,14.29,0.00,12.33,2.12,0.00,0.00,0.00,0.00,18.06,4.23,0.00,5.30,19.03,0.00,3.28,1.86,3.42,0.00,0.00,0.13
0,24.81,12.66,0.00,6.29,13.30,0.00,0.00,1.73,28.47,2.56,0.00,8.39,14.33,0.00,12.33,2.17,0.00,0.00,0.00,0.00,16.87,4.23,0.00,4.85,18.46,0.00,3.28,1.75,3.34,0.00,0.00,0.12
0,23.94,12.66,0.00,6.02,13.32,0.00,0.00,1.69,29.31,2.56,0.00,8.68,14.89,0.00,15.07,2.40,0.00,0.00,0.00,0.00,16.43,4.23,0.00,4.73,18.42,0.00,3.28,1.68,3.31,0.00,0.00,0.12
0,22.95,10.13,0.00,5.45,13.18,0.00,0.00,1.66,30.03,2.56,0.00,9.03,14.76,0.00,15.07,2.42,0.00,0.00,0.00,0.00,16.80,4.23,0.00,4.93,18.53,0.00,3.28,1.68,3.34,0.00,0.00,0.12
0,23.64,11.39,0.00,5.67,13.04,0.00,0.00,1.61,30.03,2.56,0.00,8.93,14.63,0.00,15.07,2.37,0.00,0.00,0.00,0.00,16.42,4.23,0.00,4.77,18.14,0.00,3.28,1.65,3.32,0.00,0.00,0.12
0,22.52,11.39,0.00,5.26,13.41,0.00,0.00,1.69,30.30,2.56,0.00,8.88,14.63,0.00,15.07,2.30,0.00,0.00,0.00,0.00,16.05,4.23,0.00,4.61,18.16,0.00,4.92,1.67,3.34,0.00,0.00,0.12
0,21.35,8.86,0.00,4.67,13.12,0.00,0.00,1.66,30.09,2.56,0.00,8.74,14.56,0.00,15.07,2.27,0.00,0.00,0.00,0.00,14.97,4.23,0.00,4.16,17.83,0.00,3.28,1.57,3.38,0.00,0.00,0.12
0,20.86,7.59,0.00,4.33,12.61,0.00,0.00,1.52,28.63,2.56,0.00,8.12,14.43,0.00,13.70,2.22,0.00,0.00,0.00,0.00,14.71,4.23,0.00,4.07,17.68,0.00,3.28,1.57,3.30,0.00,0.00,0.12
0,20.41,6.33,0.00,4.28,12.83,0.00,0.00,1.54,29.79,2.56,0.00,8.60,14.85,0.00,13.70,2.36,0.00,0.00,0.00,0.00,14.42,4.23,0.00,4.01,18.20,0.00,3.28,1.63,3.39,0.00,0.00,0.13
0,20.09,5.06,0.00,3.91,12.97,0.00,0.00,1.57,29.28,2.56,0.00,8.52,14.81,0.00,13.70,2.38,0.00,0.00,0.00,0.00,13.92,4.23,0.00,3.75,18.15,0.00,6.56,1.61,3.35,0.00,0.00,0.12
0,19.73,5.06,0.00,3.72,13.38,0.00,0.00,1.66,29.67,2.56,0.00,8.74,14.70,0.00,12.33,2.43,0.00,0.00,0.00,0.00,14.07,4.23,0.00,3.58,18.39,0.00,6.56,1.66,3.34,0.00,0.00,0.12
0,19.63,5.06,0.00,3.70,13.76,0.00,0.00,1.77,28.52,2.56,0.00,8.17,14.91,0.00,13.70,2.46,0.00,0.00,0.00,0.00,14.03,4.23,0.00,3.59,18.53,0.00,6.56,1.70,3.44,0.00,0.00,0.13
0,19.17,5.06,0.00,3.59,13.51,0.00,0.00,1.67,29.00,2.56,0.00,8.64,15.37,0.00,16.44,2.65,0.00,0.00,0.00,0.00,14.01,4.23,0.00,3.57,18.14,0.00,6.56,1.64,3.32,0.00,0.00,0.12
0,19.68,5.06,0.00,3.82,13.81,0.00,0.00,1.81,29.25,2.56,0.00,8.64,15.69,0.00,16.44,2.67,0.00,0.00,0.00,0.00,14.02,4.23,0.00,3.56,18.70,0.00,6.56,1.71,3.39,0.00,0.00,0.12
0,18.70,3.80,0.00,3.51,13.87,0.00,0.00,1.83,29.81,2.56,0.00,8.95,15.36,0.00,15.07,2.63,0.00,0.00,0.00,0.00,14.22,4.23,0.00,3.44,18.77,0.00,6.56,1.73,3.60,0.00,0.00,0.14
0,17.39,2.53,0.00,2.97,13.94,0.00,0.00,1.86,30.06,2.56,0.00,9.22,15.83,0.00,16.44,2.73,0.00,0.00,0.00,0.00,13.31,1.41,0.00,2.74,18.27,0.00,6.56,1.65,3.50,0.00,0.00,0.14
0,17.50,2.53,0.00,3.01,14.18,0.00,0.00,1.90,29.44,0.00,0.00,8.65,15.37,0.00,15.07,2.60,0.00,0.00,0.00,0.00,13.20,0.00,0.00,2.50,18.21,0.00,6.56,1.65,3.38,0.00,0.00,0.13
0,17.47,2.53,0.00,2.97,14.13,0.00,0.00,1.91,29.66,0.00,0.00,8.86,15.38,0.00,15.07,2.61,0.00,0.00,0.00,0.00,13.33,0.00,0.00,2.58,18.44,0.00,6.56,1.70,3.46,0.00,0.00,0.14
0,17.38,2.53,0.00,2.94,14.04,0.00,0.00,1.90,30.21,0.00,0.00,8.98,15.48,0.00,15.07,2.61,0.00,0.00,0.00,0.00,13.67,0.00,0.00,2.73,18.33,0.00,6.56,1.67,3.30,0.00,0.00,0.13
0,18.26,2.53,0.00,3.16,13.95,0.00,0.00,1.89,28.85,0.00,0.00,8.31,14.80,0.00,12.33,2.42,0.00,0.00,0.00,0.00,13.81,0.00,0.00,2.83,18.43,0.00,6.56,1.69,3.36,0.00,0.00,0.13
0,18.21,2.53,0.00,3.12,14.02,0.00,0.00,1.90,28.85,0.00,0.00,8.16,14.87,0.00,12.33,2.40,0.00,0.00,0.00,0.00,13.82,0.00,0.00,2.82,18.37,0.00,6.56,1.68,3.32,0.00,0.00,0.13
0,18.25,1.27,0.00,3.03,14.09,0.00,0.00,1.92,28.25,0.00,0.00,7.81,14.88,0.00,13.70,2.45,0.00,0.00,0.00,0.00,14.14,0.00,0.00,2.89,18.74,0.00,6.56,1.71,3.27,0.00,0.00,0.13
0,17.91,1.27,0.00,2.95,14.43,0.00,0.00,2.02,28.48,0.00,0.00,7.66,14.98,0.00,13.70,2.40,0.00,0.00,0.00,0.00,14.43,0.00,0.00,2.98,18.80,0.00,6.56,1.69,3.30,0.00,0.00,0.14
0,17.93,1.27,0.00,2.92,14.63,0.00,0.00,2.11,27.61,0.00,0.00,7.25,14.62,0.00,10.96,2.18,0.00,0.00,0.00,0.00,14.58,0.00,0.00,3.02,18.90,0.00,6.56,1.74,3.30,0.00,0.00,0.14
0,17.54,1.27,0.00,2.79,14.69,0.00,0.00,2.12,26.63,0.00,0.00,6.74,14.30,0.00,9.59,2.04,0.00,0.00,0.00,0.00,15.31,0.00,0.00,3.30,18.58,0.00,6.56,1.69,3.33,0.00,0.00,0.14
0,17.53,1.27,0.00,2.78,14.52,0.00,0.00,2.10,25.22,0.00,0.00,6.35,14.49,0.00,10.96,2.10,0.00,0.00,0.00,0.00,15.00,0.00,0.00,3.25,18.54,0.00,6.56,1.68,3.40,0.00,0.00,0.15
0,16.63,0.00,0.00,2.44,14.54,0.00,0.00,2.08,25.89,0.00,0.00,6.21,14.70,0.00,12.33,2.18,0.00,0.00,0.00,0.00,15.60,0.00,0.00,3.49,18.22,0.00,4.92,1.63,3.38,0.00,0.00,0.14
0,16.94,0.00,0.00,2.47,14.19,0.00,0.00,2.01,25.53,0.00,0.00,5.90,14.71,0.00,12.33,2.23,0.00,0.00,0.00,0.00,15.51,0.00,0.00,3.50,18.66,0.00,6.56,1.67,3.35,0.00,0.00,0.14
0,16.79,0.00,0.00,2.46,13.90,0.00,0.00,1.90,25.53,0.00,0.00,5.83,14.46,0.00,12.33,2.15,0.00,0.00,0.00,0.00,15.34,0.00,0.00,3.49,19.22,0.00,6.56,1.72,3.37,0.00,0.00,0.14
0,17.03,0.00,0.00,2.54,13.91,0.00,0.00,1.91,24.65,0.00,0.00,5.41,14.12,0.00,10.96,2.01,0.00,0.00,0.00,0.00,15.65,0.00,0.00,3.54,19.00,0.00,6.56,1.71,3.33,0.00,0.00,0.14
0,17.59,0.00,0.00,2.73,14.19,0.00,0.00,1.90,24.75,0.00,0.00,5.44,13.97,0.00,10.96,1.98,0.00,0.00,0.00,0.00,15.37,0.00,0.00,3.50,18.37,0.00,3.28,1.63,3.26,0.00,0.00,0.14
0,17.90,0.00,0.00,2.78,13.89,0.00,0.00,1.86,24.09,0.00,0.00,5.12,14.42,0.00,13.70,1.99,0.00,0.00,0.00,0.00,15.20,0.00,0.00,3.45,18.34,0.00,3.28,1.63,3.36,0.00,0.00,0.15
0,18.28,1.27,0.00,2.85,13.63,0.00,0.00,1.77,23.68,0.00,0.00,4.89,14.40,0.00,12.33,1.99,0.00,0.00,0.00,0.00,15.72,0.00,0.00,3.63,18.14,0.00,3.28,1.56,3.27,0.00,0.00,0.14
0,18.44,1.27,0.00,2.95,13.60,0.00,0.00,1.79,22.91,0.00,0.00,4.33,13.72,0.00,9.59,1.76,0.00,0.00,0.00,0.00,16.01,0.00,0.00,3.79,18.24,0.00,3.28,1.58,3.27,0.00,0.00,0.15
0,19.36,3.80,0.00,3.16,13.25,0.00,0.00,1.64,23.16,0.00,0.00,4.26,13.84,0.00,9.59,1.78,0.00,0.00,0.00,0.00,15.63,0.00,0.00,3.69,18.08,0.00,3.28,1.58,3.34,0.00,0.00,0.15
0,19.55,3.80,0.00,3.28,13.31,0.00,0.00,1.66,22.78,0.00,0.00,4.13,13.89,0.00,10.96,1.85,0.00,0.00,0.00,0.00,15.34,0.00,0.00,3.61,18.03,0.00,3.28,1.51,3.13,0.00,0.00,0.13
0,19.57,3.80,0.00,3.28,13.30,0.00,0.00,1.63,21.94,0.00,0.00,3.71,13.86,0.00,10.96,1.80,0.00,0.00,0.00,0.00,15.48,1.41,0.00,3.87,17.85,0.00,3.28,1.49,3.06,0.00,0.00,0.13
0,19.19,3.80,0.00,3.22,13.18,0.00,0.00,1.59,23.03,0.00,0.00,4.12,14.34,0.00,12.33,1.89,0.00,0.00,0.00,0.00,15.40,1.41,0.00,3.95,18.02,0.00,3.28,1.54,3.33,0.00,0.00,0.15
0,19.33,3.80,0.00,3.18,13.52,0.00,0.00,1.63,22.83,0.00,0.00,3.79,14.14,0.00,12.33,1.86,0.00,0.00,0.00,0.00,15.28,1.41,0.00,3.93,17.72,0.00,3.28,1.48,3.26,0.00,0.00,0.14
0,19.82,5.06,0.00,3.36,13.81,0.00,0.00,1.67,21.75,0.00,0.00,3.41,13.88,0.00,12.33,1.79,0.00,0.00,0.00,0.00,15.24,1.41,0.00,3.81,17.41,0.00,1.64,1.44,3.25,0.00,0.00,0.14
0,20.16,6.33,0.00,3.70,13.92,0.00,0.00,1.71,21.63,0.00,0.00,3.62,14.22,0.00,12.33,1.98,0.00,0.00,0.00,0.00,15.02,1.41,0.00,3.76,17.05,0.00,1.64,1.42,3.27,0.00,0.00,0.15
0,19.83,6.33,0.00,3.61,13.93,0.00,0.00,1.70,22.08,0.00,0.00,4.07,14.34,0.00,12.33,2.01,0.00,0.00,0.00,0.00,15.54,1.41,0.00,3.91,17.06,0.00,1.64,1.36,3.17,0.00,0.00,0.14
0,20.28,7.59,0.00,3.75,13.94,0.00,0.00,1.74,22.16,0.00,0.00,4.26,14.70,0.00,12.33,2.22,0.00,0.00,0.00,0.00,15.43,1.41,0.00,3.92,17.06,0.00,1.64,1.37,3.27,0.00,0.00,0.14
0,20.57,7.59,0.00,3.86,13.58,0.00,0.00,1.65,22.05,0.00,0.00,4.20,14.88,0.00,12.33,2.23,0.00,0.00,0.00,0.00,14.88,1.41,0.00,3.79,17.03,0.00,1.64,1.38,3.34,0.00,0.00,0.14
0,21.70,8.86,0.00,4.22,13.53,0.00,0.00,1.59,21.72,0.00,0.00,4.19,14.79,0.00,12.33,2.28,0.00,0.00,0.00,0.00,15.21,1.41,0.00,3.80,17.06,0.00,1.64,1.37,3.30,0.00,0.00,0.14
0,22.66,8.86,0.00,4.58,13.32,0.00,0.00,1.53,21.33,0.00,0.00,4.11,14.75,0.00,12.33,2.31,0.00,0.00,0.00,0.00,14.91,1.41,0.00,3.93,16.88,0.00,1.64,1.39,3.36,0.00,0.00,0.15
0,22.91,8.86,0.00,4.69,13.14,0.00,0.00,1.50,21.92,0.00,0.00,4.37,14.09,0.00,9.59,2.17,0.00,0.00,0.00,0.00,14.32,1.41,0.00,3.59,16.99,0.00,1.64,1.40,3.26,0.00,0.00,0.14
0,23.12,8.86,0.00,4.67,13.23,0.00,0.00,1.53,21.57,0.00,0.00,4.20,14.29,0.00,9.59,2.24,0.00,0.00,0.00,0.00,13.79,1.41,0.00,3.39,17.30,0.00,1.64,1.49,3.22,0.00,0.00,0.14
0,22.96,8.86,0.00,4.73,13.07,0.00,0.00,1.51,21.47,0.00,0.00,4.56,14.50,0.00,10.96,2.28,0.00,0.00,0.00,0.00,13.34,1.41,0.00,3.16,16.82,0.00,0.00,1.42,3.20,0.00,0.00,0.13
0,22.64,8.86,0.00,4.62,13.22,0.00,0.00,1.52,21.53,0.00,0.00,4.61,14.74,0.00,13.70,2.30,0.00,0.00,0.00,0.00,13.44,1.41,0.00,3.14,16.03,0.00,0.00,1.35,3.25,0.00,0.00,0.14
0,22.90,8.86,0.00,4.66,13.33,0.00,0.00,1.58,21.93,0.00,0.00,4.81,14.91,0.00,13.70,2.41,0.00,0.00,0.00,0.00,13.14,1.41,0.00,3.05,15.96,0.00,0.00,1.33,3.22,0.00,0.00,0.13
0,23.24,11.39,0.00,4.89,12.88,0.00,0.00,1.51,22.61,0.00,0.00,5.12,15.19,0.00,13.70,2.54,0.00,0.00,0.00,0.00,13.01,1.41,0.00,3.02,15.56,0.00,0.00,1.29,3.35,0.00,0.00,0.14
0,22.47,11.39,0.00,4.76,12.68,0.00,0.00,1.47,22.91,0.00,0.00,5.35,15.09,0.00,12.33,2.54,0.00,0.00,0.00,0.00,13.62,1.41,0.00,3.23,15.66,0.00,0.00,1.26,3.33,0.00,0.00,0.14
0,22.68,11.39,0.00,4.83,13.01,0.00,0.00,1.55,23.15,0.00,0.00,5.41,14.95,0.00,12.33,2.50,0.00,0.00,0.00,0.00,13.38,1.41,0.00,3.15,15.92,0.00,0.00,1.27,3.28,0.00,0.00,0.13
0,23.26,12.66,0.00,5.26,13.20,0.00,0.00,1.60,23.22,0.00,0.00,5.50,15.25,0.00,15.07,2.54,0.00,0.00,0.00,0.00,13.63,1.41,0.00,3.21,16.06,0.00,1.64,1.31,3.47,0.00,0.00,0.14
0,22.76,11.39,0.00,5.08,13.05,0.00,0.00,1.58,23.87,0.00,0.00,5.94,15.28,0.00,15.07,2.55,0.00,0.00,0.00,0.00,13.35,1.41,0.00,3.09,15.99,0.00,1.64,1.25,3.45,0.00,0.00,0.14
0,22.88,11.39,0.00,4.95,13.05,0.00,0.00,1.57,24.05,0.00,0.00,6.13,14.86,0.00,13.70,2.42,0.00,0.00,0.00,0.00,13.12,1.41,0.00,3.05,15.82,0.00,1.64,1.26,3.53,0.00,0.00,0.15
0,23.73,13.92,0.00,5.25,12.89,0.00,0.00,1.55,24.18,0.00,0.00,6.44,14.71,0.00,12.33,2.52,0.00,0.00,0.00,0.00,13.39,1.41,0.00,3.16,16.03,0.00,1.64,1.32,3.62,0.00,0.00,0.15
0,24.19,13.92,0.00,5.32,13.13,0.00,0.00,1.58,23.25,0.00,0.00,6.03,14.52,0.00,10.96,2.49,0.00,0.00,0.00,0.00,12.81,0.00,0.00,2.58,15.96,0.00,1.64,1.28,3.45,0.00,0.00,0.14
0,24.30,13.92,0.00,5.39,12.92,0.00,0.00,1.54,23.18,0.00,0.00,6.03,14.68,0.00,10.96,2.57,0.00,0.00,0.00,0.00,13.41,0.00,0.00,2.86,16.37,0.00,1.64,1.35,3.41,0.00,0.00,0.13
0,24.23,13.92,0.00,5.44,12.65,0.00,0.00,1.54,23.66,0.00,0.00,6.25,14.84,0.00,12.33,2.61,0.00,0.00,0.00,0.00,14.39,2.82,0.00,3.43,16.24,0.00,1.64,1.31,3.60,0.00,0.00,0.15
0,23.83,12.66,0.00,5.07,12.25,0.00,0.00,1.42,23.75,0.00,0.00,6.13,14.82,0.00,12.33,2.47,0.00,0.00,0.00,0.00,14.75,2.82,0.00,3.89,16.17,0.00,1.64,1.29,3.34,0.00,0.00,0.13
0,24.69,12.66,0.00,5.27,12.41,0.00,0.00,1.45,24.16,0.00,0.00,5.90,14.68,0.00,13.70,2.44,0.00,0.00,0.00,0.00,14.29,2.82,0.00,3.76,16.07,0.00,1.64,1.29,3.35,0.00,0.00,0.13
0,24.50,12.66,0.00,5.29,12.65,0.00,0.00,1.49,23.35,0.00,0.00,5.56,13.98,0.00,12.33,2.17,0.00,0.00,0.00,0.00,14.61,2.82,0.00,3.79,15.85,0.00,1.64,1.28,3.38,0.00,0.00,0.13
0,23.67,11.39,0.00,4.89,12.46,0.00,0.00,1.45,24.00,0.00,0.00,5.58,14.44,0.00,13.70,2.23,0.00,0.00,0.00,0.00,16.12,7.04,0.00,4.90,16.13,0.00,1.64,1.31,3.61,0.00,0.00,0.21
0,24.99,13.92,0.00,5.40,12.19,0.00,0.00,1.39,25.20,0.00,0.00,6.31,15.39,0.00,15.07,2.84,0.00,0.00,0.00,0.00,16.70,7.04,0.00,5.15,16.28,0.00,1.64,1.33,4.06,0.00,0.00,0.36
1,26.40,13.92,2.00,6.33,13.01,0.00,0.00,1.64,26.57,0.00,0.00,7.01,18.72,2.44,17.81,5.86,0.00,0.00,0.00,0.00,17.14,7.04,0.00,5.24,17.40,0.00,6.56,1.54,4.42,0.00,0.00,0.46
1,28.99,16.46,6.00,8.83,13.32,0.00,0.00,1.66,30.40,5.13,0.00,10.47,20.96,2.44,21.92,7.19,0.00,0.00,0.00,0.00,18.74,9.86,0.00,6.47,18.39,0.00,9.84,1.98,6.42,0.00,0.00,1.25
1,31.42,20.25,6.00,10.44,13.74,0.00,0.00,1.67,43.93,12.82,50.00,42.31,25.48,7.32,26.03,11.56,0.00,0.00,0.00,0.00,19.78,11.27,0.00,7.31,21.70,6.25,14.75,4.69,13.88,7.69,5.00,11.84
1,33.21,24.05,8.00,11.37,15.13,0.00,0.00,2.16,56.97,17.95,100.00,77.42,30.70,14.63,30.14,17.00,0.00,0.00,0.00,0.00,21.82,14.08,0.00,8.78,25.65,12.50,18.03,7.86,20.35,12.82,10.00,28.45
1,35.08,26.58,8.00,12.03,15.21,0.00,0.00,2.17,62.52,25.64,100.00,83.59,33.12,17.07,31.51,19.32,0.00,0.00,0.00,0.00,22.87,15.49,0.00,9.35,28.18,15.63,21.31,8.95,23.24,17.95,10.00,31.09
1,37.09,31.65,8.00,13.01,15.30,0.00,0.00,2.15,69.26,33.33,100.00,91.90,36.97,21.95,36.99,22.85,0.00,0.00,0.00,0.00,23.27,15.49,0.00,9.65,30.11,15.63,24.59,9.56,31.18,25.64,20.00,42.11
1,36.94,30.38,8.00,13.01,15.45,0.00,0.00,2.22,72.36,35.90,100.00,94.39,38.02,21.95,39.73,23.29,0.00,0.00,0.00,0.00,24.42,15.49,0.00,10.14,31.56,15.63,26.23,9.94,35.30,30.77,25.00,47.75
1,37.43,31.65,8.00,13.12,15.67,0.00,0.00,2.25,73.14,35.90,100.00,94.92,38.05,21.95,39.73,23.35,0.00,0.00,0.00,0.00,24.23,15.49,0.00,10.11,31.42,15.63,26.23,9.95,36.67,33.33,25.00,48.65
1,37.59,31.65,8.00,13.27,16.18,0.00,0.00,2.34,74.19,35.90,100.00,95.11,38.24,21.95,39.73,23.35,0.00,0.00,0.00,0.00,25.00,16.90,0.00,10.29,32.42,15.63,26.23,10.17,38.73,33.33,25.00,49.34
1,37.18,30.38,8.00,12.98,15.91,0.00,0.00,2.28,76.83,41.03,100.00,96.60,40.06,24.39,42.47,24.26,0.00,0.00,0.00,0.00,25.34,16.90,0.00,10.47,32.18,15.63,26.23,10.22,40.55,35.90,25.00,50.64
1,37.53,29.11,8.00,12.94,16.96,0.00,0.00,2.71,76.99,41.03,100.00,96.46,40.02,24.39,43.84,24.36,0.00,0.00,0.00,0.00,25.76,16.90,0.00,10.77,32.53,15.63,26.23,10.27,41.29,35.90,25.00,50.95
1,37.69,29.11,8.00,13.12,17.02,0.00,0.00,2.75,77.24,41.03,100.00,96.27,40.43,24.39,43.84,24.35,0.00,0.00,0.00,0.00,26.41,16.90,0.00,11.12,32.83,15.63,26.23,10.34,42.02,35.90,25.00,51.05
1,37.67,27.85,8.00,13.37,17.19,0.00,0.00,2.78,79.51,46.15,100.00,97.71,41.68,24.39,45.21,24.97,0.00,0.00,0.00,0.00,26.36,16.90,0.00,11.11,32.75,15.63,26.23,10.35,45.05,38.46,25.00,52.59
1,38.51,29.11,8.00,14.00,17.21,0.00,0.00,2.82,79.80,46.15,100.00,97.80,42.27,24.39,47.95,25.21,0.00,0.00,0.00,0.00,26.95,16.90,0.00,11.28,33.93,15.63,27.87,10.63,45.90,38.46,25.00,53.23
1,39.66,31.65,8.00,15.17,17.06,0.00,0.00,2.79,80.06,46.15,100.00,97.86,42.68,24.39,49.32,25.49,0.00,0.00,0.00,0.00,26.48,16.90,0.00,11.14,33.70,15.63,27.87,10.61,46.98,38.46,25.00,53.45
1,40.08,31.65,8.00,15.25,16.92,0.00,0.00,2.74,79.90,46.15,100.00,97.71,42.98,24.39,47.95,25.50,0.00,0.00,0.00,0.00,26.18,15.49,0.00,10.98,33.80,15.63,27.87,10.64,48.16,38.46,25.00,53.68
1,39.08,30.38,8.00,14.85,16.87,0.00,0.00,2.73,80.37,46.15,100.00,98.14,43.61,24.39,52.05,25.83,0.00,0.00,0.00,0.00,25.63,14.08,0.00,10.19,34.22,15.63,27.87,10.70,50.11,38.46,25.00,54.66
1,38.66,30.38,8.00,14.77,16.58,0.00,0.00,2.68,80.67,46.15,100.00,98.16,43.44,24.39,50.68,25.86,0.00,0.00,0.00,0.00,25.27,14.08,0.00,9.98,34.17,15.63,27.87,10.73,51.02,38.46,25.00,54.82
1,39.12,30.38,8.00,14.99,16.66,0.00,0.00,2.66,80.92,46.15,100.00,98.27,44.23,24.39,52.05,26.08,0.00,0.00,0.00,0.00,26.59,16.90,0.00,10.42,34.09,15.63,27.87,10.75,51.78,38.46,25.00,55.01
1,39.84,31.65,8.00,15.41,16.81,0.00,0.00,2.70,82.09,46.15,100.00,98.55,44.04,24.39,52.05,26.01,0.00,0.00,0.00,0.00,26.61,14.08,1.96,10.93,33.78,15.63,27.87,10.74,52.92,38.46,25.00,55.24
1,39.41,29.11,8.00,15.19,16.94,0.00,0.00,2.74,81.36,46.15,100.00,98.22,43.76,24.39,52.05,25.64,0.00,0.00,0.00,0.00,27.46,15.49,1.96,11.48,34.28,15.63,29.51,10.84,54.01,38.46,25.00,55.81
1,37.19,27.85,6.00,14.18,16.33,0.00,0.00,2.53,80.99,46.15,100.00,98.00,42.30,21.95,52.05,24.18,0.00,0.00,0.00,0.00,26.80,15.49,1.96,11.49,34.04,15.63,29.51,10.89,55.67,38.46,25.00,56.46
1,35.56,26.58,2.00,12.76,16.32,0.00,0.00,2.56,78.04,43.59,100.00,95.68,39.95,21.95,50.68,22.28,0.00,0.00,0.00,0.00,26.34,12.68,1.96,10.59,33.15,15.63,26.23,10.64,54.41,38.46,25.00,55.76
1,33.85,24.05,2.00,10.44,16.06,0.00,0.00,2.54,69.81,35.90,75.00,81.84,35.81,17.07,47.95,18.01,0.00,0.00,0.00,0.00,26.26,11.27,1.96,10.41,30.79,9.38,22.95,9.25,51.51,35.90,20.00,52.70
1,32.87,22.78,2.00,10.19,14.67,0.00,0.00,2.15,53.52,28.21,0.00,29.92,30.85,9.76,45.21,12.20,0.00,0.00,0.00,0.00,25.48,9.86,1.96,9.76,26.52,3.12,19.67,4.67,42.80,28.21,15.00,29.71
1,31.45,18.99,2.00,9.47,14.56,0.00,0.00,2.07,49.01,23.08,0.00,22.66,28.24,7.32,39.73,10.09,0.00,0.00,0.00,0.00,24.69,8.45,1.96,9.20,25.09,0.00,19.67,3.70,40.54,25.64,15.00,28.01
1,29.63,15.19,2.00,8.55,14.32,0.00,0.00,2.05,42.50,12.82,0.00,15.76,23.90,2.44,34.25,6.60,0.00,0.00,0.00,0.00,24.80,8.45,1.96,9.18,23.89,0.00,16.39,3.38,33.67,15.38,5.00,19.24
1,29.05,13.92,2.00,8.41,13.98,0.00,0.00,1.95,39.05,10.26,0.00,12.17,22.18,2.44,31.51,5.39,0.00,0.00,0.00,0.00,23.76,8.45,1.96,8.73,22.29,0.00,14.75,2.81,29.25,10.26,0.00,10.95
1,29.15,12.66,2.00,8.40,13.57,0.00,0.00,1.86,38.13,10.26,0.00,11.68,22.27,2.44,34.25,5.45,0.00,0.00,0.00,0.00,23.43,8.45,1.96,8.43,21.77,0.00,14.75,2.76,27.71,7.69,0.00,9.88
1,29.59,12.66,2.00,8.44,12.81,0.00,0.00,1.70,38.95,10.26,0.00,12.13,22.59,2.44,35.62,5.58,0.00,0.00,0.00,0.00,24.97,11.27,1.96,9.69,21.21,0.00,14.75,2.59,27.23,7.69,0.00,9.71
1,29.24,12.66,2.00,8.19,12.71,0.00,0.00,1.71,38.13,10.26,0.00,13.04,21.31,0.00,30.14,5.48,0.00,0.00,0.00,0.00,23.92,9.86,1.96,9.44,20.55,0.00,13.11,2.48,26.29,7.69,0.00,9.45
1,28.46,12.66,2.00,8.02,11.62,0.00,0.00,1.31,36.42,7.69,0.00,11.63,20.31,0.00,28.77,4.54,0.00,0.00,0.00,0.00,23.81,11.27,1.96,9.26,20.32,0.00,13.11,2.44,25.08,5.13,0.00,8.06
1,28.51,12.66,2.00,8.03,11.42,0.00,0.00,1.26,36.14,7.69,0.00,11.61,20.71,0.00,30.14,4.62,0.00,0.00,0.00,0.00,23.63,11.27,1.96,9.20,20.65,0.00,14.75,2.49,24.79,5.13,0.00,7.99
1,28.33,12.66,2.00,7.81,11.76,0.00,0.00,1.33,35.70,7.69,0.00,11.40,21.73,0.00,34.25,4.82,0.00,0.00,0.00,0.00,23.34,11.27,1.96,8.96,21.12,0.00,14.75,2.57,23.94,5.13,0.00,7.45
1,27.86,11.39,2.00,7.55,11.45,0.00,0.00,1.21,34.23,5.13,0.00,10.05,20.08,0.00,30.14,4.04,0.00,0.00,0.00,0.00,24.22,15.49,1.96,9.85,20.24,0.00,13.11,2.33,23.04,2.56,0.00,6.32
1,26.50,8.86,2.00,6.04,11.60,0.00,0.00,1.22,34.12,5.13,0.00,10.30,19.76,0.00,31.51,3.81,0.00,0.00,0.00,0.00,24.00,15.49,1.96,9.81,20.47,0.00,13.11,2.31,22.96,2.56,0.00,6.62
1,26.99,8.86,2.00,6.41,11.84,0.00,0.00,1.30,34.51,5.13,0.00,10.38,20.06,0.00,31.51,3.81,0.00,0.00,0.00,0.00,23.79,15.49,1.96,9.70,20.22,0.00,13.11,2.27,22.52,2.56,0.00,6.48
1,27.80,11.39,2.00,6.75,11.70,0.00,0.00,1.30,34.61,5.13,0.00,10.24,19.64,0.00,28.77,3.52,0.00,0.00,0.00,0.00,23.70,15.49,1.96,9.69,20.29,0.00,13.11,2.23,21.20,2.56,0.00,5.80
1,27.54,11.39,2.00,6.74,11.82,0.00,0.00,1.33,34.07,5.13,0.00,9.99,20.06,0.00,30.14,3.52,0.00,0.00,0.00,0.00,24.40,15.49,1.96,9.89,20.60,0.00,13.11,2.25,20.98,2.56,0.00,5.68
1,27.33,11.39,2.00,6.58,12.00,0.00,0.00,1.38,34.05,5.13,0.00,10.66,20.15,0.00,30.14,3.71,0.00,0.00,0.00,0.00,23.45,14.08,1.96,9.52,20.75,0.00,13.11,2.25,21.58,2.56,0.00,5.80
1,26.90,10.13,2.00,6.35,11.74,0.00,0.00,1.33,34.54,5.13,0.00,10.83,20.59,0.00,31.51,3.79,0.00,0.00,0.00,0.00,21.40,11.27,0.00,8.05,21.13,0.00,13.11,2.28,22.56,2.56,0.00,6.17
1,26.42,10.13,2.00,6.11,11.63,0.00,0.00,1.30,35.38,5.13,0.00,11.05,20.47,0.00,30.14,3.72,0.00,0.00,0.00,0.00,20.53,9.86,0.00,7.69,21.18,0.00,11.48,2.26,22.83,2.56,0.00,6.15
1,26.98,11.39,2.00,6.31,11.64,0.00,0.00,1.29,34.06,5.13,0.00,10.53,19.65,0.00,28.77,3.16,0.00,0.00,0.00,0.00,19.57,9.86,0.00,6.68,20.52,0.00,6.56,1.98,21.77,2.56,0.00,6.02
1,26.37,10.13,2.00,6.06,11.38,0.00,0.00,1.25,34.33,5.13,0.00,10.65,20.25,0.00,28.77,3.40,0.00,0.00,0.00,0.00,19.50,9.86,0.00,6.66,20.77,0.00,8.20,2.05,22.08,2.56,0.00,6.54
1,27.17,11.39,2.00,6.19,11.46,0.00,0.00,1.23,35.17,5.13,0.00,10.96,20.76,0.00,30.14,3.62,0.00,0.00,0.00,0.00,18.79,9.86,0.00,6.42,20.44,0.00,8.20,2.02,22.71,2.56,0.00,6.68
1,27.53,10.13,2.00,7.13,12.02,0.00,0.00,1.40,33.35,5.13,0.00,9.92,20.09,0.00,27.40,3.48,0.00,0.00,0.00,0.00,17.81,8.45,0.00,5.76,19.79,0.00,6.56,1.89,21.81,0.00,0.00,5.91
1,26.98,10.13,2.00,6.66,11.93,0.00,0.00,1.37,34.55,7.69,0.00,10.60,20.83,0.00,30.14,3.74,0.00,0.00,0.00,0.00,17.95,8.45,0.00,5.61,19.77,0.00,6.56,1.98,22.71,0.00,0.00,6.29
1,27.32,12.66,2.00,6.82,12.01,0.00,0.00,1.38,33.78,7.69,0.00,10.47,21.48,0.00,32.88,3.93,0.00,0.00,0.00,0.00,17.15,8.45,0.00,5.41,19.90,0.00,6.56,1.93,22.73,0.00,0.00,6.40
1,27.42,12.66,2.00,6.75,12.09,0.00,0.00,1.44,33.92,7.69,0.00,10.26,21.89,0.00,34.25,3.95,0.00,0.00,0.00,0.00,17.36,8.45,0.00,5.38,20.14,0.00,9.84,2.02,23.58,0.00,0.00,6.64
1,27.77,13.92,2.00,7.16,12.32,0.00,0.00,1.47,32.91,7.69,0.00,9.97,21.96,0.00,32.88,3.85,0.00,0.00,0.00,0.00,17.21,8.45,0.00,5.35,20.75,0.00,9.84,2.08,23.96,0.00,0.00,6.77
1,27.98,13.92,2.00,7.38,12.40,0.00,0.00,1.46,33.06,7.69,0.00,9.79,22.18,0.00,34.25,3.82,0.00,0.00,0.00,0.00,16.44,7.04,0.00,4.99,21.14,0.00,9.84,2.15,24.65,0.00,0.00,7.10
1,28.41,13.92,2.00,7.64,12.54,0.00,0.00,1.45,30.62,5.13,0.00,8.20,22.32,0.00,34.25,3.87,0.00,0.00,0.00,0.00,16.03,5.63,0.00,3.95,21.43,0.00,9.84,2.18,24.59,0.00,0.00,6.99
1,29.54,16.46,2.00,8.04,12.48,0.00,0.00,1.46,31.70,5.13,0.00,8.50,22.45,0.00,35.62,3.90,0.00,0.00,0.00,0.00,15.59,5.63,0.00,3.92,21.57,0.00,9.84,2.18,24.86,0.00,0.00,7.36
1,29.04,15.19,2.00,7.87,12.47,0.00,0.00,1.43,32.13,5.13,0.00,8.62,22.04,0.00,34.25,3.82,0.00,0.00,0.00,0.00,15.15,4.23,0.00,3.71,21.16,0.00,8.20,2.11,25.22,0.00,0.00,7.48
1,28.97,15.19,2.00,7.95,12.51,0.00,0.00,1.46,32.48,5.13,0.00,8.66,20.64,0.00,30.14,3.45,0.00,0.00,0.00,0.00,15.31,4.23,0.00,3.77,20.58,0.00,8.20,1.95,25.27,0.00,0.00,7.50
1,28.60,15.19,2.00,7.76,12.07,0.00,0.00,1.39,32.81,5.13,0.00,8.95,20.91,0.00,30.14,3.57,0.00,0.00,0.00,0.00,14.96,2.82,0.00,3.39,21.32,0.00,9.84,2.11,26.04,0.00,0.00,7.90
1,29.27,16.46,2.00,8.14,11.93,0.00,0.00,1.38,33.30,5.13,0.00,9.15,20.65,0.00,28.77,3.51,0.00,0.00,0.00,0.00,14.16,0.00,0.00,2.81,20.95,0.00,11.48,2.11,25.98,0.00,0.00,7.82
1,28.54,15.19,2.00,7.87,11.90,0.00,0.00,1.41,33.74,5.13,0.00,9.28,21.09,0.00,30.14,3.78,0.00,0.00,0.00,0.00,13.97,0.00,0.00,2.78,21.56,0.00,11.48,2.24,26.88,0.00,0.00,8.12
1,27.86,12.66,2.00,7.49,11.85,0.00,0.00,1.41,32.93,5.13,0.00,9.04,21.06,0.00,31.51,3.83,0.00,0.00,0.00,0.00,14.09,0.00,0.00,2.81,21.72,0.00,11.48,2.30,26.43,0.00,0.00,8.01
1,27.80,12.66,2.00,7.47,11.81,0.00,0.00,1.37,32.75,5.13,0.00,8.97,20.66,0.00,30.14,3.78,0.00,0.00,0.00,0.00,13.38,0.00,0.00,2.59,21.37,0.00,11.48,2.24,25.48,0.00,0.00,7.83
1,28.15,12.66,2.00,7.65,11.87,0.00,0.00,1.35,32.11,5.13,0.00,8.30,20.62,0.00,31.51,3.63,0.00,0.00,0.00,0.00,13.49,0.00,0.00,2.62,21.14,0.00,11.48,2.24,24.19,0.00,0.00,7.43
1,27.70,12.66,2.00,7.57,12.01,0.00,0.00,1.41,31.72,5.13,0.00,8.28,21.24,0.00,32.88,3.83,0.00,0.00,0.00,0.00,13.43,0.00,0.00,2.58,21.22,0.00,11.48,2.23,23.76,0.00,0.00,7.49
1,28.46,13.92,2.00,7.65,12.29,0.00,0.00,1.48,31.54,5.13,0.00,8.16,22.26,0.00,38.36,4.05,0.00,0.00,0.00,0.00,13.44,0.00,0.00,2.59,21.09,0.00,11.48,2.19,23.18,0.00,0.00,7.26
1,27.96,12.66,2.00,7.56,12.67,0.00,0.00,1.57,32.29,5.13,0.00,8.50,22.38,0.00,38.36,4.39,0.00,0.00,0.00,0.00,13.98,0.00,0.00,2.70,21.19,0.00,13.11,2.24,22.59,0.00,0.00,6.66
1,28.01,12.66,2.00,7.60,12.52,0.00,0.00,1.57,32.43,5.13,0.00,8.53,21.92,0.00,38.36,4.20,0.00,0.00,0.00,0.00,14.02,0.00,0.00,2.74,20.48,0.00,11.48,2.03,22.35,0.00,0.00,6.03
1,28.19,15.19,2.00,7.95,12.24,0.00,0.00,1.54,32.01,5.13,0.00,8.17,21.29,0.00,38.36,3.89,0.00,0.00,0.00,0.00,13.36,0.00,0.00,2.51,20.16,0.00,11.48,2.01,22.27,0.00,0.00,6.03
1,26.20,12.66,0.00,6.58,11.93,0.00,0.00,1.43,30.48,5.13,0.00,7.69,21.57,0.00,38.36,3.96,0.00,0.00,0.00,0.00,12.68,0.00,0.00,2.15,20.62,0.00,11.48,2.07,22.00,0.00,0.00,5.83
1,26.39,13.92,0.00,6.83,11.85,0.00,0.00,1.43,29.01,2.56,0.00,7.03,21.26,0.00,36.99,3.82,0.00,0.00,0.00,0.00,12.82,0.00,0.00,2.18,19.83,0.00,8.20,1.87,21.37,0.00,0.00,5.57
1,26.78,12.66,0.00,7.05,12.21,0.00,0.00,1.52,28.18,2.56,0.00,6.81,20.92,0.00,35.62,3.75,0.00,0.00,0.00,0.00,13.44,0.00,0.00,2.56,20.26,0.00,9.84,1.96,22.56,0.00,0.00,5.84
1,26.57,12.66,0.00,7.01,12.08,0.00,0.00,1.49,28.21,2.56,0.00,6.55,21.27,0.00,36.99,3.86,0.00,0.00,0.00,0.00,13.44,0.00,0.00,2.56,20.25,0.00,6.56,1.90,22.59,0.00,0.00,5.83
1,26.56,11.39,0.00,6.97,12.32,0.00,0.00,1.56,28.84,2.56,0.00,6.82,20.92,0.00,35.62,3.85,0.00,0.00,0.00,0.00,13.31,0.00,0.00,2.53,20.70,0.00,8.20,2.01,22.49,0.00,0.00,5.95
1,25.44,10.13,0.00,6.65,12.04,0.00,0.00,1.54,28.15,2.56,0.00,6.49,20.19,0.00,31.51,3.70,0.00,0.00,0.00,0.00,13.53,0.00,0.00,2.58,20.44,0.00,8.20,1.96,22.51,0.00,0.00,5.94
1,25.18,10.13,0.00,6.38,12.71,0.00,0.00,1.71,28.96,2.56,0.00,6.73,20.10,0.00,31.51,3.66,0.00,0.00,0.00,0.00,13.63,0.00,0.00,2.73,20.30,0.00,8.20,1.93,22.61,0.00,0.00,5.91
1,24.43,7.59,0.00,6.10,13.08,0.00,0.00,1.80,28.91,2.56,0.00,6.77,20.15,0.00,31.51,3.61,0.00,0.00,0.00,0.00,13.70,0.00,0.00,2.75,20.95,0.00,9.84,2.09,22.85,0.00,0.00,5.87
1,24.28,7.59,0.00,6.01,13.43,0.00,0.00,1.87,28.29,2.56,0.00,6.52,20.30,0.00,31.51,3.65,0.00,0.00,0.00,0.00,13.64,0.00,0.00,2.72,21.21,0.00,11.48,2.20,23.17,0.00,0.00,5.92
1,23.87,7.59,0.00,5.86,13.14,0.00,0.00,1.81,28.75,2.56,0.00,6.93,20.88,0.00,34.25,3.79,0.00,0.00,0.00,0.00,13.65,0.00,0.00,2.71,21.70,0.00,11.48,2.25,23.72,0.00,0.00,6.12
1,24.39,8.86,0.00,5.98,13.78,0.00,0.00,1.88,28.96,2.56,0.00,7.01,21.32,0.00,36.99,3.93,0.00,0.00,0.00,0.00,13.45,0.00,0.00,2.64,21.65,0.00,13.11,2.29,23.10,0.00,0.00,5.65
1,22.91,7.59,0.00,5.27,14.05,0.00,0.00,1.94,26.67,0.00,0.00,6.15,20.64,0.00,35.62,3.80,0.00,0.00,0.00,0.00,13.51,0.00,0.00,2.63,21.60,0.00,11.48,2.21,22.28,0.00,0.00,5.37
1,22.87,7.59,0.00,5.27,13.98,0.00,0.00,1.87,27.52,0.00,0.00,6.54,20.18,0.00,34.25,3.60,0.00,0.00,0.00,0.00,13.58,0.00,0.00,2.64,21.59,0.00,14.75,2.20,21.68,0.00,0.00,5.15
1,22.69,7.59,0.00,5.32,14.04,0.00,0.00,1.86,27.26,0.00,0.00,6.64,20.27,0.00,34.25,3.53,0.00,0.00,0.00,0.00,13.97,0.00,0.00,2.71,21.10,0.00,14.75,2.12,22.32,0.00,0.00,5.24
1,22.83,7.59,0.00,5.29,14.01,0.00,0.00,1.86,27.61,0.00,0.00,6.67,20.19,0.00,32.88,3.53,0.00,0.00,0.00,0.00,14.14,0.00,0.00,2.80,21.05,0.00,14.75,2.11,23.12,0.00,0.00,5.57
1,22.47,7.59,0.00,5.16,14.33,0.00,0.00,1.94,27.42,0.00,0.00,6.64,20.15,0.00,31.51,3.54,0.00,0.00,0.00,0.00,14.07,0.00,0.00,2.79,21.25,0.00,14.75,2.12,23.62,0.00,0.00,5.68
1,22.63,7.59,0.00,5.16,13.87,0.00,0.00,1.86,27.68,0.00,0.00,6.99,19.14,0.00,28.77,3.18,0.00,0.00,0.00,0.00,14.27,0.00,0.00,2.85,20.93,0.00,14.75,2.07,23.65,0.00,0.00,5.74
1,23.36,7.59,0.00,5.41,13.51,0.00,0.00,1.79,27.58,0.00,0.00,6.74,18.14,0.00,23.29,3.01,0.00,0.00,0.00,0.00,14.82,0.00,0.00,3.08,21.27,0.00,14.75,2.16,23.52,0.00,0.00,5.46
1,23.45,7.59,0.00,5.42,13.05,0.00,0.00,1.68,27.83,0.00,0.00,6.69,18.16,0.00,26.03,2.86,0.00,0.00,0.00,0.00,14.55,0.00,0.00,3.01,21.27,0.00,13.11,2.13,23.64,0.00,0.00,5.55
1,23.70,7.59,0.00,5.54,13.74,0.00,0.00,1.81,27.36,0.00,0.00,6.32,17.95,0.00,23.29,2.80,0.00,0.00,0.00,0.00,14.49,0.00,0.00,2.95,21.06,0.00,14.75,2.13,23.29,0.00,0.00,5.35
1,24.96,7.59,2.00,6.52,13.91,0.00,0.00,1.80,30.54,5.13,0.00,8.86,19.58,0.00,27.40,3.45,0.00,0.00,0.00,0.00,14.98,0.00,0.00,3.11,21.40,0.00,14.75,2.18,24.61,2.56,0.00,6.46
1,25.49,7.59,2.00,6.57,13.82,0.00,0.00,1.78,31.45,5.13,0.00,9.00,19.01,0.00,26.03,3.32,0.00,0.00,0.00,0.00,15.16,0.00,0.00,3.14,21.48,0.00,14.75,2.16,25.50,2.56,0.00,6.81
1,25.11,6.33,2.00,6.34,13.89,0.00,0.00,1.81,32.66,5.13,0.00,9.54,18.71,0.00,26.03,3.23,0.00,0.00,0.00,0.00,15.09,0.00,0.00,3.12,21.29,0.00,14.75,2.13,25.98,2.56,0.00,6.93
1,24.51,5.06,2.00,6.27,13.80,0.00,0.00,1.77,32.94,5.13,0.00,9.74,19.17,0.00,24.66,3.32,0.00,0.00,0.00,0.00,14.78,0.00,0.00,2.85,21.38,0.00,13.11,2.17,25.08,2.56,0.00,6.73
1,24.11,5.06,2.00,5.85,13.77,0.00,0.00,1.76,34.18,5.13,0.00,10.04,19.17,0.00,24.66,3.34,0.00,0.00,0.00,0.00,14.60,0.00,0.00,2.77,20.83,0.00,13.11,2.10,25.16,2.56,0.00,6.90
1,24.38,7.59,2.00,6.06,13.67,0.00,0.00,1.69,33.67,5.13,0.00,9.86,19.20,0.00,27.40,3.36,0.00,0.00,0.00,0.00,14.78,0.00,0.00,2.83,19.97,0.00,11.48,1.93,25.04,2.56,0.00,6.56
1,24.25,7.59,2.00,5.98,14.47,0.00,0.00,1.80,33.67,5.13,0.00,9.87,19.47,0.00,28.77,3.43,0.00,0.00,0.00,0.00,14.58,0.00,0.00,2.76,19.99,0.00,11.48,1.92,24.90,2.56,0.00,6.29
1,24.66,7.59,2.00,6.02,14.16,0.00,0.00,1.69,32.95,5.13,0.00,9.61,19.46,0.00,30.14,3.39,0.00,0.00,0.00,0.00,14.40,0.00,0.00,2.64,20.24,0.00,11.48,1.95,24.50,2.56,0.00,6.30
1,25.37,7.59,2.00,6.18,13.50,0.00,0.00,1.54,33.65,5.13,0.00,9.75,18.98,0.00,28.77,3.34,0.00,0.00,0.00,0.00,14.58,0.00,0.00,2.60,19.46,0.00,9.84,1.74,23.99,2.56,0.00,6.04
1,25.10,7.59,2.00,6.19,13.19,0.00,0.00,1.46,33.66,5.13,0.00,9.54,18.64,0.00,28.77,3.25,0.00,0.00,0.00,0.00,14.41,0.00,0.00,2.55,18.80,0.00,8.20,1.60,23.25,2.56,0.00,5.79
1,25.35,7.59,2.00,6.16,12.94,0.00,0.00,1.43,33.71,5.13,0.00,9.23,18.96,0.00,28.77,3.32,0.00,0.00,0.00,0.00,14.08,0.00,0.00,2.45,18.54,0.00,8.20,1.56,22.23,2.56,0.00,5.39
1,25.01,7.59,2.00,6.40,12.37,0.00,0.00,1.35,34.84,7.69,0.00,10.13,19.38,0.00,28.77,3.53,0.00,0.00,0.00,0.00,14.32,0.00,0.00,2.53,17.61,0.00,4.92,1.39,22.48,2.56,0.00,5.68
1,25.43,8.86,2.00,6.51,12.36,0.00,0.00,1.35,35.81,7.69,0.00,10.32,19.58,0.00,28.77,3.54,0.00,0.00,0.00,0.00,14.72,0.00,0.00,2.76,17.32,0.00,4.92,1.36,22.14,2.56,0.00,5.60
1,25.84,10.13,2.00,6.69,12.04,0.00,0.00,1.31,36.44,10.26,0.00,10.69,20.35,0.00,31.51,3.75,0.00,0.00,0.00,0.00,14.68,0.00,0.00,2.88,16.92,0.00,1.64,1.32,22.79,2.56,0.00,5.98
1,26.63,10.13,2.00,7.14,12.18,0.00,0.00,1.37,36.70,10.26,0.00,10.48,20.01,0.00,30.14,3.67,0.00,0.00,0.00,0.00,14.58,0.00,0.00,2.89,16.94,0.00,1.64,1.33,23.30,2.56,0.00,6.03
1,27.26,10.13,2.00,7.29,12.51,0.00,0.00,1.45,36.79,10.26,0.00,10.51,20.21,0.00,31.51,3.73,0.00,0.00,0.00,0.00,14.01,0.00,0.00,2.76,17.25,0.00,1.64,1.37,23.08,2.56,0.00,6.13
1,27.90,10.13,2.00,7.38,12.30,0.00,0.00,1.37,37.07,10.26,0.00,10.56,20.13,0.00,32.88,3.66,0.00,0.00,0.00,0.00,13.83,0.00,0.00,2.65,17.53,0.00,1.64,1.40,22.62,2.56,0.00,6.04
1,27.93,10.13,2.00,7.41,12.27,0.00,0.00,1.35,38.55,12.82,0.00,11.36,20.58,0.00,34.25,3.87,0.00,0.00,0.00,0.00,13.81,0.00,0.00,2.65,18.20,0.00,3.28,1.58,22.55,2.56,0.00,6.00
1,27.31,10.13,2.00,7.29,12.24,0.00,0.00,1.39,37.89,12.82,0.00,11.23,21.08,0.00,36.99,3.96,0.00,0.00,0.00,0.00,13.43,0.00,0.00,2.46,17.59,0.00,3.28,1.49,22.49,2.56,0.00,6.04
1,26.78,8.86,2.00,6.85,12.26,0.00,0.00,1.38,37.59,12.82,0.00,11.31,20.82,0.00,34.25,4.00,0.00,0.00,0.00,0.00,13.19,0.00,0.00,2.44,17.57,0.00,3.28,1.48,22.16,2.56,0.00,5.95
1,26.28,8.86,2.00,6.62,11.68,0.00,0.00,1.24,37.82,12.82,0.00,11.45,21.49,0.00,35.62,4.09,0.00,0.00,0.00,0.00,13.57,0.00,0.00,2.53,17.39,0.00,3.28,1.50,22.58,2.56,0.00,6.35
1,25.35,7.59,0.00,5.58,11.95,0.00,0.00,1.30,35.32,10.26,0.00,9.82,20.17,0.00,30.14,3.61,0.00,0.00,0.00,0.00,13.25,0.00,0.00,2.43,17.38,0.00,3.28,1.51,20.98,0.00,0.00,5.34
1,25.78,7.59,0.00,5.86,11.69,0.00,0.00,1.26,34.00,7.69,0.00,8.93,19.70,0.00,30.14,3.48,0.00,0.00,0.00,0.00,13.29,0.00,0.00,2.44,17.32,0.00,3.28,1.51,20.17,0.00,0.00,5.05
1,25.85,7.59,0.00,6.13,11.58,0.00,0.00,1.22,33.95,7.69,0.00,8.74,19.78,0.00,31.51,3.51,0.00,0.00,0.00,0.00,13.14,0.00,0.00,2.38,17.41,0.00,3.28,1.52,19.09,0.00,0.00,4.77
1,26.06,8.86,0.00,6.17,11.46,0.00,0.00,1.17,33.24,7.69,0.00,8.50,19.14,0.00,30.14,3.39,0.00,0.00,0.00,0.00,13.85,2.82,0.00,2.92,16.93,0.00,3.28,1.46,19.12,0.00,0.00,4.69
1,27.87,12.66,0.00,6.49,11.51,0.00,0.00,1.18,32.30,7.69,0.00,8.27,18.96,0.00,28.77,3.33,0.00,0.00,0.00,0.00,14.38,2.82,0.00,3.23,17.53,0.00,4.92,1.53,19.06,0.00,0.00,4.74
1,27.58,10.13,0.00,6.40,11.43,0.00,0.00,1.19,31.81,7.69,0.00,8.11,18.15,0.00,26.03,3.04,0.00,0.00,0.00,0.00,15.76,4.23,0.00,3.85,17.61,0.00,4.92,1.55,17.67,0.00,0.00,4.23
1,27.91,10.13,0.00,6.36,11.12,0.00,0.00,1.14,32.04,7.69,0.00,8.01,18.28,0.00,24.66,3.05,0.00,0.00,0.00,0.00,15.54,4.23,0.00,3.78,17.38,0.00,4.92,1.52,17.47,0.00,0.00,4.26
1,29.08,12.66,2.00,7.26,10.77,0.00,0.00,1.06,31.68,7.69,0.00,8.12,18.54,0.00,26.03,3.15,0.00,0.00,0.00,0.00,16.06,4.23,0.00,3.93,17.94,0.00,6.56,1.80,18.39,0.00,0.00,4.74
1,28.31,12.66,2.00,7.08,11.10,0.00,0.00,1.08,33.06,10.26,0.00,8.91,19.41,0.00,28.77,3.47,0.00,0.00,0.00,0.00,16.74,5.63,0.00,4.32,18.52,0.00,6.56,1.94,19.31,0.00,0.00,5.27
1,28.16,12.66,2.00,6.96,11.06,0.00,0.00,1.09,33.79,12.82,0.00,9.68,19.50,0.00,28.77,3.49,0.00,0.00,0.00,0.00,17.36,5.63,0.00,4.56,19.39,0.00,8.20,2.19,20.17,2.56,0.00,5.94
1,28.59,12.66,2.00,7.17,11.39,0.00,0.00,1.15,33.51,12.82,0.00,9.60,19.38,0.00,27.40,3.43,0.00,0.00,0.00,0.00,18.33,5.63,0.00,4.92,19.82,0.00,8.20,2.26,20.76,2.56,0.00,6.08
1,29.04,12.66,2.00,7.09,11.84,0.00,0.00,1.23,32.29,10.26,0.00,8.85,18.45,0.00,26.03,3.02,0.00,0.00,0.00,0.00,18.54,5.63,0.00,4.92,19.87,0.00,8.20,2.25,20.62,2.56,0.00,5.82
1,29.83,12.66,2.00,7.25,11.66,0.00,0.00,1.20,31.39,10.26,0.00,8.24,18.38,0.00,27.40,3.04,0.00,0.00,0.00,0.00,17.98,5.63,0.00,4.85,20.49,0.00,8.20,2.30,20.99,2.56,0.00,6.05
1,29.63,10.13,2.00,6.96,11.97,0.00,0.00,1.21,30.62,7.69,0.00,7.62,17.71,0.00,24.66,2.83,0.00,0.00,0.00,0.00,17.65,5.63,0.00,4.44,20.27,0.00,8.20,2.26,20.24,2.56,0.00,5.65
1,31.08,12.66,2.00,8.02,11.80,0.00,0.00,1.22,31.68,7.69,0.00,8.04,18.30,0.00,26.03,3.04,0.00,0.00,0.00,0.00,18.15,5.63,0.00,4.65,20.58,0.00,8.20,2.29,20.06,2.56,0.00,5.55
1,30.91,15.19,2.00,7.78,11.43,0.00,0.00,1.15,33.52,12.82,0.00,8.86,18.80,0.00,28.77,3.11,0.00,0.00,0.00,0.00,18.43,5.63,0.00,4.71,20.84,0.00,9.84,2.29,20.56,5.13,0.00,6.11
1,31.14,16.46,2.00,8.20,11.46,0.00,0.00,1.16,33.74,12.82,0.00,8.84,18.48,0.00,27.40,3.05,0.00,0.00,0.00,0.00,18.53,5.63,0.00,4.75,20.34,0.00,9.84,2.28,20.31,5.13,0.00,5.92
1,32.97,20.25,2.00,10.08,11.49,0.00,0.00,1.16,32.52,10.26,0.00,8.15,17.39,0.00,23.29,2.74,0.00,0.00,0.00,0.00,18.87,5.63,0.00,4.98,19.61,0.00,8.20,2.11,19.49,5.13,0.00,5.68
1,33.18,20.25,2.00,10.30,11.44,0.00,0.00,1.13,33.12,10.26,0.00,8.41,17.66,0.00,24.66,2.78,0.00,0.00,0.00,0.00,18.96,5.63,0.00,4.97,20.59,0.00,9.84,2.27,19.46,5.13,0.00,5.67
1,33.81,22.78,2.00,10.48,12.14,0.00,0.00,1.28,32.71,10.26,0.00,8.06,17.43,0.00,24.66,2.69,0.00,0.00,0.00,0.00,19.61,5.63,0.00,5.21,21.07,0.00,11.48,2.37,19.60,5.13,0.00,5.80
1,34.93,22.78,2.00,10.82,12.15,0.00,0.00,1.29,31.75,10.26,0.00,7.98,16.37,0.00,23.29,2.43,0.00,0.00,0.00,0.00,19.71,5.63,0.00,5.42,20.50,0.00,9.84,2.27,19.07,5.13,0.00,5.66
1,35.30,22.78,2.00,11.12,11.59,0.00,0.00,1.22,31.62,10.26,0.00,7.89,16.46,0.00,24.66,2.43,0.00,0.00,0.00,0.00,20.36,5.63,0.00,5.64,20.35,0.00,9.84,2.24,19.91,7.69,0.00,5.78
1,34.67,21.52,2.00,10.94,12.32,0.00,0.00,1.40,33.21,10.26,0.00,8.18,17.17,0.00,26.03,2.63,0.00,0.00,0.00,0.00,20.68,5.63,0.00,5.76,20.36,0.00,9.84,2.28,20.81,7.69,0.00,6.06
1,34.56,21.52,2.00,10.56,12.12,0.00,0.00,1.37,32.53,10.26,0.00,7.95,17.23,0.00,24.66,2.72,0.00,0.00,0.00,0.00,21.12,5.63,0.00,5.92,20.18,0.00,9.84,2.25,21.12,7.69,0.00,6.16
1,34.94,22.78,2.00,11.03,12.19,0.00,0.00,1.41,32.28,10.26,0.00,7.85,17.07,0.00,24.66,2.68,0.00,0.00,0.00,0.00,20.56,2.82,0.00,5.56,20.20,0.00,9.84,2.26,21.77,7.69,0.00,6.36
1,35.00,22.78,2.00,11.17,12.02,0.00,0.00,1.38,33.86,10.26,0.00,8.34,17.34,0.00,24.66,2.72,0.00,0.00,0.00,0.00,20.47,2.82,0.00,5.29,19.64,0.00,8.20,2.17,21.67,7.69,0.00,6.35
1,34.84,22.78,2.00,11.28,12.25,0.00,0.00,1.42,33.98,10.26,0.00,8.40,17.73,0.00,26.03,2.81,0.00,0.00,0.00,0.00,19.40,1.41,0.00,4.77,19.97,0.00,8.20,2.20,21.92,7.69,0.00,6.34
1,34.41,22.78,2.00,11.19,12.46,0.00,0.00,1.46,34.86,10.26,0.00,8.61,18.04,0.00,28.77,2.89,0.00,0.00,0.00,0.00,19.16,1.41,0.00,4.71,20.58,0.00,11.48,2.31,22.13,7.69,0.00,6.24
1,33.34,20.25,0.00,10.31,12.64,0.00,0.00,1.53,35.33,12.82,0.00,9.05,17.96,0.00,28.77,2.95,0.00,0.00,0.00,0.00,19.19,1.41,0.00,4.68,21.18,0.00,13.11,2.30,21.53,7.69,0.00,5.98
1,35.25,24.05,0.00,11.24,12.30,0.00,0.00,1.50,34.21,10.26,0.00,8.32,17.57,0.00,26.03,2.69,0.00,0.00,0.00,0.00,18.38,0.00,0.00,4.58,20.49,0.00,13.11,2.14,20.51,7.69,0.00,5.32
1,35.75,25.32,0.00,11.68,12.48,0.00,0.00,1.52,32.90,7.69,0.00,7.55,18.23,0.00,28.77,2.88,0.00,0.00,0.00,0.00,17.81,0.00,0.00,4.09,19.87,0.00,11.48,1.87,20.21,5.13,0.00,4.83
1,36.73,25.32,0.00,11.85,12.57,0.00,0.00,1.54,33.34,7.69,0.00,7.67,18.01,0.00,27.40,2.83,0.00,0.00,0.00,0.00,17.52,0.00,0.00,4.09,19.41,0.00,11.48,1.79,20.05,5.13,0.00,4.90
1,36.32,25.32,0.00,11.72,12.80,0.00,0.00,1.58,33.48,7.69,0.00,8.01,17.89,0.00,26.03,2.85,0.00,0.00,0.00,0.00,16.96,0.00,0.00,3.98,19.16,0.00,11.48,1.75,20.33,5.13,0.00,5.04
1,36.20,25.32,0.00,11.95,13.03,0.00,0.00,1.60,33.02,7.69,0.00,8.04,17.75,0.00,24.66,2.76,0.00,0.00,0.00,0.00,17.29,0.00,0.00,4.07,18.96,0.00,11.48,1.74,19.31,5.13,0.00,4.68
1,35.99,26.58,0.00,12.03,12.78,0.00,0.00,1.58,33.55,7.69,0.00,8.20,18.54,0.00,28.77,2.93,0.00,0.00,0.00,0.00,17.32,0.00,0.00,4.08,19.82,0.00,13.11,1.87,19.72,5.13,0.00,4.75
1,35.17,24.05,0.00,11.28,12.75,0.00,0.00,1.55,32.20,7.69,0.00,7.86,18.24,0.00,28.77,2.81,0.00,0.00,0.00,0.00,16.53,0.00,0.00,3.79,19.67,0.00,13.11,1.87,19.54,5.13,0.00,4.74
1,35.06,26.58,0.00,11.39,12.93,0.00,0.00,1.58,30.64,2.56,0.00,7.07,17.83,0.00,27.40,2.69,0.00,0.00,0.00,0.00,15.90,0.00,0.00,3.60,19.29,0.00,11.48,1.82,18.19,2.56,0.00,3.94
1,35.28,26.58,0.00,11.55,13.07,0.00,0.00,1.58,30.48,2.56,0.00,6.96,18.53,0.00,28.77,2.80,0.00,0.00,0.00,0.00,16.38,1.41,0.00,3.83,20.19,0.00,11.48,2.00,19.12,2.56,0.00,4.03
1,34.60,24.05,2.00,11.03,13.01,0.00,0.00,1.58,30.31,2.56,0.00,6.67,18.84,0.00,28.77,2.85,0.00,0.00,0.00,0.00,15.79,1.41,0.00,3.74,20.82,0.00,14.75,2.18,19.71,2.56,0.00,4.30
1,34.07,24.05,2.00,10.65,12.93,0.00,0.00,1.56,30.71,2.56,0.00,6.72,18.85,0.00,26.03,2.88,0.00,0.00,0.00,0.00,15.70,1.41,0.00,3.67,20.43,0.00,14.75,2.12,19.78,2.56,0.00,4.37
1,33.59,22.78,2.00,10.77,12.31,0.00,0.00,1.45,31.49,2.56,0.00,7.02,18.70,0.00,27.40,2.74,0.00,0.00,0.00,0.00,15.28,1.41,0.00,3.61,19.30,0.00,11.48,1.87,19.84,2.56,0.00,4.15
1,33.87,25.32,2.00,10.94,12.12,0.00,0.00,1.37,31.93,2.56,0.00,7.08,18.80,0.00,27.40,2.76,0.00,0.00,0.00,0.00,14.74,1.41,0.00,3.16,19.65,0.00,11.48,1.90,19.61,2.56,0.00,4.08
1,34.73,29.11,2.00,11.44,12.16,0.00,0.00,1.38,32.70,2.56,0.00,7.37,19.00,0.00,26.03,2.91,0.00,0.00,0.00,0.00,14.21,1.41,0.00,3.15,20.52,0.00,14.75,2.08,19.48,0.00,0.00,4.03
1,35.34,31.65,2.00,12.08,11.61,0.00,0.00,1.22,31.10,2.56,0.00,6.95,18.52,0.00,26.03,2.72,0.00,0.00,0.00,0.00,13.44,1.41,0.00,2.95,20.50,0.00,14.75,2.07,18.68,0.00,0.00,3.68
1,35.08,31.65,2.00,12.13,12.07,0.00,0.00,1.30,31.84,2.56,0.00,7.17,18.33,0.00,28.77,2.59,0.00,0.00,0.00,0.00,13.19,1.41,0.00,2.84,20.43,0.00,14.75,2.05,18.83,0.00,0.00,3.59
1,34.20,29.11,2.00,11.73,12.31,0.00,0.00,1.33,33.25,2.56,0.00,7.59,19.10,0.00,32.88,2.72,0.00,0.00,0.00,0.00,13.22,1.41,0.00,2.84,21.75,0.00,18.03,2.27,19.80,0.00,0.00,4.15
1,33.73,29.11,2.00,11.34,12.34,0.00,0.00,1.33,32.71,2.56,0.00,7.24,18.97,0.00,32.88,2.71,0.00,0.00,0.00,0.00,12.95,1.41,0.00,2.81,22.31,0.00,19.67,2.41,19.41,0.00,0.00,4.09
1,32.66,25.32,2.00,10.74,12.05,0.00,0.00,1.27,32.30,2.56,0.00,7.16,18.82,0.00,32.88,2.63,0.00,0.00,0.00,0.00,12.80,1.41,0.00,2.76,22.48,0.00,19.67,2.42,18.62,0.00,0.00,3.94
1,36.38,27.85,6.00,15.78,12.56,0.00,0.00,1.63,31.57,2.56,0.00,7.07,18.20,0.00,30.14,2.46,0.00,0.00,0.00,0.00,13.69,1.41,0.00,3.55,21.53,0.00,16.39,2.26,17.71,0.00,0.00,3.81
0,39.67,32.91,10.00,18.33,15.33,2.22,2.33,3.89,33.34,0.00,0.00,7.86,20.29,2.44,32.88,3.42,0.00,0.00,0.00,0.00,15.54,4.23,1.96,4.61,22.50,0.00,16.39,2.52,17.83,0.00,0.00,3.89
0,42.62,34.18,18.00,21.87,17.85,4.44,6.98,6.46,33.82,0.00,0.00,8.55,20.88,2.44,35.62,3.54,0.00,0.00,0.00,0.00,18.00,8.45,3.92,7.81,22.57,0.00,16.39,2.58,17.57,0.00,0.00,3.78
0,42.41,34.18,18.00,21.74,18.52,4.44,6.98,6.81,32.57,0.00,0.00,8.24,20.47,2.44,35.62,3.43,0.00,0.00,0.00,0.00,19.12,8.45,5.88,9.81,22.41,0.00,18.03,2.63,16.58,0.00,0.00,3.54
0,44.62,36.71,20.00,24.75,19.19,4.44,6.98,7.37,32.66,0.00,0.00,8.17,20.47,2.44,35.62,3.42,0.00,0.00,0.00,0.00,20.09,8.45,5.88,10.68,22.79,0.00,18.03,2.66,15.81,0.00,0.00,3.27
0,46.49,40.51,22.00,25.54,19.10,4.44,6.98,7.37,32.28,0.00,0.00,7.97,20.12,2.44,35.62,3.33,0.00,0.00,0.00,0.00,20.07,8.45,5.88,10.54,22.65,0.00,18.03,2.66,14.62,0.00,0.00,3.01
0,48.84,43.04,26.00,28.72,19.17,4.44,6.98,7.40,32.58,0.00,0.00,7.80,20.22,2.44,35.62,3.40,0.00,0.00,0.00,0.00,20.74,9.86,5.88,10.85,22.62,0.00,18.03,2.68,14.15,0.00,0.00,2.85
0,52.92,48.10,32.00,31.99,19.60,4.44,6.98,7.49,31.77,0.00,0.00,7.56,19.57,2.44,31.51,3.31,0.00,0.00,0.00,0.00,21.48,9.86,5.88,11.03,22.60,0.00,16.39,2.70,13.70,0.00,0.00,2.80
0,54.19,50.63,34.00,32.71,19.48,4.44,6.98,7.48,31.45,0.00,0.00,7.50,19.68,2.44,32.88,3.22,0.00,0.00,0.00,0.00,22.37,9.86,5.88,11.36,22.18,0.00,16.39,2.58,13.16,0.00,0.00,2.69
0,54.49,50.63,34.00,32.90,20.29,4.44,6.98,7.73,30.96,0.00,0.00,7.40,19.23,2.44,31.51,3.16,0.00,0.00,0.00,0.00,23.40,11.27,5.88,11.92,22.32,0.00,16.39,2.58,13.13,0.00,0.00,2.69
0,54.92,51.90,34.00,33.03,20.74,4.44,6.98,7.81,30.51,0.00,0.00,7.33,19.01,2.44,30.14,3.13,0.00,0.00,0.00,0.00,23.57,11.27,5.88,11.94,21.82,0.00,16.39,2.52,12.01,0.00,0.00,2.53
0,54.98,51.90,34.00,32.02,21.13,4.44,6.98,8.00,30.81,0.00,0.00,7.46,18.77,2.44,30.14,3.07,0.00,0.00,0.00,0.00,23.62,9.86,5.88,11.70,20.68,0.00,13.11,2.25,11.06,0.00,0.00,2.22
0,57.57,55.70,36.00,34.71,21.98,4.44,6.98,8.31,30.10,0.00,0.00,7.35,18.36,2.44,28.77,3.01,0.00,0.00,0.00,0.00,24.68,11.27,5.88,12.56,21.34,0.00,13.11,2.32,10.45,0.00,0.00,2.11
0,57.62,54.43,36.00,34.98,22.21,4.44,6.98,8.33,29.36,0.00,0.00,7.14,18.26,2.44,27.40,3.02,0.00,0.00,0.00,0.00,24.74,11.27,5.88,12.76,21.43,0.00,13.11,2.36,9.59,0.00,0.00,1.93
0,59.14,54.43,36.00,35.33,22.15,4.44,6.98,8.33,28.55,0.00,0.00,6.96,18.15,2.44,27.40,3.02,0.00,0.00,0.00,0.00,24.89,11.27,5.88,12.82,21.30,0.00,13.11,2.36,9.18,0.00,0.00,1.86
0,60.33,56.96,38.00,36.60,22.06,4.44,6.98,8.34,27.99,0.00,0.00,6.84,18.16,2.44,28.77,2.94,0.00,0.00,0.00,0.00,24.81,11.27,5.88,12.68,20.69,0.00,9.84,2.22,8.15,0.00,0.00,1.50
0,59.56,54.43,38.00,35.77,21.89,4.44,6.98,8.31,27.95,0.00,0.00,6.74,17.86,2.44,26.03,2.90,0.00,0.00,0.00,0.00,24.98,11.27,5.88,12.71,20.28,0.00,9.84,2.18,7.62,0.00,0.00,1.40
0,59.39,54.43,38.00,35.78,21.60,4.44,6.98,8.25,28.02,0.00,0.00,6.86,17.72,2.44,23.29,2.86,0.00,0.00,0.00,0.00,25.02,11.27,5.88,12.72,20.23,0.00,9.84,2.16,6.62,0.00,0.00,1.23
0,61.40,58.23,38.00,36.69,21.37,4.44,6.98,8.25,26.53,0.00,0.00,6.45,17.30,2.44,19.18,2.79,0.00,0.00,0.00,0.00,25.47,11.27,5.88,12.95,19.44,0.00,6.56,2.03,5.05,0.00,0.00,0.76
0,62.46,59.49,38.00,37.15,21.01,4.44,6.98,8.21,26.51,0.00,0.00,6.53,17.44,2.44,20.55,2.78,0.00,0.00,0.00,0.00,25.38,11.27,5.88,12.88,18.88,0.00,4.92,1.89,4.17,0.00,0.00,0.32
0,63.71,62.03,40.00,38.11,21.30,4.44,6.98,8.26,26.42,0.00,0.00,6.39,17.41,2.44,20.55,2.86,0.00,0.00,0.00,0.00,25.04,11.27,5.88,12.77,18.61,0.00,4.92,1.84,4.25,0.00,0.00,0.32
0,62.39,62.03,38.00,35.82,21.12,4.44,6.98,8.15,26.54,0.00,0.00,6.49,17.20,2.44,19.18,2.87,0.00,0.00,0.00,0.00,25.95,12.68,5.88,13.06,19.17,0.00,4.92,1.92,4.23,0.00,0.00,0.32
0,58.98,56.96,32.00,31.64,19.74,4.44,4.65,7.75,24.91,0.00,0.00,6.20,16.28,2.44,17.81,2.68,0.00,0.00,0.00,0.00,25.38,12.68,3.92,13.09,18.71,0.00,4.92,1.85,3.52,0.00,0.00,0.22
0,54.16,51.90,24.00,27.01,16.18,0.00,0.00,3.50,23.72,0.00,0.00,5.18,14.56,0.00,12.33,1.83,0.00,0.00,0.00,0.00,23.44,8.45,1.96,10.03,17.87,0.00,3.28,1.52,3.19,0.00,0.00,0.11
0,52.89,49.37,24.00,26.37,15.32,0.00,0.00,2.77,23.73,0.00,0.00,5.01,13.93,0.00,9.59,1.62,0.00,0.00,0.00,0.00,22.88,8.45,0.00,8.06,17.56,0.00,1.64,1.48,3.12,0.00,0.00,0.11
0,52.42,51.90,24.00,26.12,14.50,0.00,0.00,2.35,23.99,0.00,0.00,5.05,13.87,0.00,10.96,1.58,0.00,0.00,0.00,0.00,22.59,8.45,0.00,7.67,17.86,0.00,3.28,1.51,3.01,0.00,0.00,0.10
0,49.50,48.10,22.00,23.34,13.85,0.00,0.00,2.21,24.27,0.00,0.00,5.43,14.00,0.00,10.96,1.66,0.00,0.00,0.00,0.00,22.19,8.45,0.00,7.47,17.93,0.00,3.28,1.52,3.05,0.00,0.00,0.11
0,46.84,48.10,18.00,20.08,14.01,0.00,0.00,2.21,23.82,0.00,0.00,5.32,14.01,0.00,10.96,1.60,0.00,0.00,0.00,0.00,21.56,7.04,0.00,7.19,17.79,0.00,3.28,1.49,3.07,0.00,0.00,0.11
0,45.74,45.57,16.00,20.31,13.45,0.00,0.00,2.10,23.85,0.00,0.00,5.51,13.74,0.00,10.96,1.57,0.00,0.00,0.00,0.00,21.79,7.04,0.00,7.37,17.23,0.00,3.28,1.42,2.99,0.00,0.00,0.10
0,42.60,43.04,12.00,16.82,13.09,0.00,0.00,2.05,24.55,0.00,0.00,5.55,14.01,0.00,12.33,1.65,0.00,0.00,0.00,0.00,20.95,7.04,0.00,6.96,17.56,0.00,3.28,1.46,3.04,0.00,0.00,0.10
0,42.50,41.77,14.00,16.67,12.84,0.00,0.00,1.90,25.11,0.00,0.00,5.68,13.74,0.00,10.96,1.62,0.00,0.00,0.00,0.00,19.75,5.63,0.00,6.43,17.82,0.00,3.28,1.50,3.14,0.00,0.00,0.11
0,42.77,41.77,14.00,16.71,12.96,0.00,0.00,1.91,25.06,0.00,0.00,5.77,13.81,0.00,10.96,1.61,0.00,0.00,0.00,0.00,20.35,8.45,0.00,6.72,17.85,0.00,3.28,1.53,3.15,0.00,0.00,0.11
0,41.79,39.24,12.00,16.63,12.42,0.00,0.00,1.76,23.92,0.00,0.00,5.59,13.68,0.00,10.96,1.58,0.00,0.00,0.00,0.00,22.44,11.27,1.96,9.29,17.87,0.00,3.28,1.52,3.21,0.00,0.00,0.11
0,40.11,37.97,10.00,14.04,11.93,0.00,0.00,1.50,24.45,0.00,0.00,5.68,14.14,0.00,13.70,1.74,0.00,0.00,0.00,0.00,24.25,16.90,1.96,11.27,17.67,0.00,3.28,1.48,3.32,0.00,0.00,0.11
0,39.51,36.71,10.00,13.36,11.74,0.00,0.00,1.50,24.55,0.00,0.00,5.76,14.11,0.00,13.70,1.78,0.00,0.00,0.00,0.00,24.06,15.49,1.96,11.03,17.46,0.00,3.28,1.44,3.58,0.00,0.00,0.15
0,37.09,35.44,10.00,12.70,11.92,0.00,0.00,1.51,24.69,0.00,0.00,5.76,14.54,0.00,13.70,1.90,0.00,0.00,0.00,0.00,26.06,16.90,1.96,11.89,18.10,0.00,3.28,1.48,3.75,0.00,0.00,0.16
0,36.81,32.91,10.00,13.24,12.33,0.00,0.00,1.57,24.73,0.00,0.00,5.42,14.52,0.00,13.70,1.90,0.00,0.00,0.00,0.00,27.01,19.72,1.96,12.47,17.96,0.00,3.28,1.47,3.70,0.00,0.00,0.16
0,36.03,31.65,10.00,12.85,12.82,0.00,0.00,1.64,25.17,0.00,0.00,5.69,14.35,0.00,13.70,1.89,0.00,0.00,0.00,0.00,27.26,19.72,1.96,12.62,18.47,0.00,3.28,1.56,3.79,0.00,0.00,0.16
0,35.25,30.38,10.00,12.54,13.32,0.00,0.00,1.74,24.76,0.00,0.00,5.54,14.63,0.00,13.70,1.97,0.00,0.00,0.00,0.00,27.82,21.13,1.96,12.87,18.29,0.00,3.28,1.54,3.78,0.00,0.00,0.17
0,34.63,29.11,10.00,11.91,13.27,0.00,0.00,1.72,25.61,0.00,0.00,5.79,14.96,0.00,15.07,2.05,0.00,0.00,0.00,0.00,28.29,21.13,1.96,12.91,18.40,0.00,3.28,1.57,3.66,0.00,0.00,0.16
0,35.56,29.11,12.00,12.23,13.73,0.00,0.00,1.79,25.25,0.00,0.00,5.51,14.94,0.00,15.07,2.05,0.00,0.00,0.00,0.00,28.54,22.54,1.96,13.36,18.50,0.00,3.28,1.57,3.71,0.00,0.00,0.17
0,35.61,30.38,10.00,12.75,13.91,0.00,0.00,1.84,25.94,0.00,0.00,5.71,14.66,0.00,13.70,1.95,0.00,0.00,0.00,0.00,28.78,22.54,1.96,13.43,18.59,0.00,3.28,1.59,3.56,0.00,0.00,0.16
0,33.66,27.85,10.00,11.50,13.57,0.00,0.00,1.79,25.71,0.00,0.00,5.56,14.71,0.00,15.07,1.95,0.00,0.00,0.00,0.00,28.99,25.35,1.96,13.93,18.76,0.00,4.92,1.64,3.55,0.00,0.00,0.16
0,33.30,27.85,10.00,11.24,13.51,0.00,0.00,1.77,25.16,0.00,0.00,5.03,14.69,0.00,16.44,1.98,0.00,0.00,0.00,0.00,29.49,26.76,1.96,14.54,19.07,0.00,4.92,1.70,3.59,0.00,0.00,0.16
0,33.79,30.38,10.00,11.74,14.06,0.00,0.00,1.95,24.97,0.00,0.00,4.79,14.68,0.00,16.44,2.00,0.00,0.00,0.00,0.00,28.95,26.76,1.96,14.21,18.78,0.00,4.92,1.70,3.53,0.00,0.00,0.16
0,36.03,32.91,12.00,13.27,14.04,0.00,0.00,1.93,24.93,0.00,0.00,4.74,14.90,0.00,17.81,2.01,0.00,0.00,0.00,0.00,27.75,25.35,1.96,13.80,18.55,0.00,4.92,1.64,3.56,0.00,0.00,0.17
0,37.84,35.44,12.00,14.61,13.94,0.00,0.00,1.85,24.69,0.00,0.00,4.75,14.57,0.00,16.44,2.01,0.00,0.00,0.00,0.00,28.37,28.17,1.96,14.04,18.88,0.00,3.28,1.72,3.64,0.00,0.00,0.18
0,37.18,32.91,12.00,13.69,13.93,0.00,0.00,1.80,24.01,0.00,0.00,4.23,14.94,0.00,19.18,2.08,0.00,0.00,0.00,0.00,27.84,28.17,1.96,13.68,18.53,0.00,3.28,1.65,3.60,0.00,0.00,0.17
0,37.92,32.91,12.00,14.09,13.85,0.00,0.00,1.80,24.79,0.00,0.00,4.40,14.96,0.00,19.18,2.16,0.00,0.00,0.00,0.00,29.11,30.99,1.96,14.94,18.09,0.00,3.28,1.62,3.69,0.00,0.00,0.18
0,38.04,31.65,10.00,13.52,14.19,0.00,0.00,1.84,24.44,0.00,0.00,4.16,15.00,0.00,19.18,2.16,0.00,0.00,0.00,0.00,29.72,32.39,1.96,15.14,19.19,0.00,6.56,1.79,3.81,0.00,0.00,0.19
0,40.33,36.71,14.00,15.19,14.70,0.00,0.00,1.91,24.31,0.00,0.00,4.20,15.21,0.00,17.81,2.31,0.00,0.00,0.00,0.00,31.54,35.21,3.92,16.62,18.72,0.00,6.56,1.73,3.99,0.00,0.00,0.21
0,41.84,39.24,12.00,16.28,14.43,0.00,0.00,1.89,23.84,0.00,0.00,4.05,15.51,0.00,19.18,2.34,0.00,0.00,0.00,0.00,32.11,35.21,3.92,16.90,18.39,0.00,6.56,1.69,3.94,0.00,0.00,0.21
0,43.63,43.04,16.00,17.49,14.21,0.00,0.00,1.83,24.02,0.00,0.00,4.28,15.38,0.00,19.18,2.35,0.00,0.00,0.00,0.00,32.91,35.21,3.92,17.17,18.10,0.00,6.56,1.64,3.94,0.00,0.00,0.20
0,44.60,46.84,16.00,18.30,13.97,0.00,0.00,1.79,23.92,0.00,0.00,4.24,15.30,0.00,19.18,2.33,0.00,0.00,0.00,0.00,30.91,30.99,1.96,16.81,17.86,0.00,6.56,1.62,3.83,0.00,0.00,0.20
0,45.48,48.10,16.00,18.57,14.21,0.00,0.00,1.81,23.27,0.00,0.00,3.86,15.23,0.00,17.81,2.25,0.00,0.00,0.00,0.00,28.43,26.76,1.96,12.81,17.90,0.00,6.56,1.62,3.92,0.00,0.00,0.20
0,44.78,46.84,16.00,18.25,14.47,0.00,0.00,1.82,23.35,0.00,0.00,3.96,15.34,0.00,16.44,2.24,0.00,0.00,0.00,0.00,28.31,25.35,1.96,12.31,18.16,0.00,6.56,1.63,3.67,0.00,0.00,0.19
0,46.83,49.37,18.00,19.48,14.64,0.00,0.00,1.87,22.95,0.00,0.00,3.84,14.92,0.00,16.44,2.13,0.00,0.00,0.00,0.00,26.51,23.94,1.96,11.43,17.63,0.00,6.56,1.60,3.57,0.00,0.00,0.17
0,45.12,46.84,16.00,17.48,14.33,0.00,0.00,1.80,23.40,0.00,0.00,4.02,14.85,0.00,16.44,2.12,0.00,0.00,0.00,0.00,25.56,21.13,1.96,10.85,17.76,0.00,8.20,1.62,3.58,0.00,0.00,0.17
0,45.13,46.84,16.00,17.38,14.47,0.00,0.00,1.87,23.26,0.00,0.00,3.88,15.00,0.00,16.44,2.14,0.00,0.00,0.00,0.00,25.06,21.13,1.96,10.62,17.47,0.00,8.20,1.55,3.52,0.00,0.00,0.17
0,44.94,46.84,16.00,17.25,14.45,0.00,0.00,1.90,23.22,0.00,0.00,4.05,14.93,0.00,16.44,2.10,0.00,0.00,0.00,0.00,24.64,19.72,1.96,10.36,17.89,0.00,8.20,1.56,3.48,0.00,0.00,0.16
0,44.62,46.84,16.00,17.14,14.55,0.00,0.00,1.93,22.71,0.00,0.00,3.81,14.72,0.00,15.07,2.07,0.00,0.00,0.00,0.00,24.76,21.13,1.96,10.52,18.00,0.00,8.20,1.52,3.61,0.00,0.00,0.17
0,43.88,48.10,16.00,16.76,14.43,0.00,0.00,1.86,22.89,0.00,0.00,3.90,14.36,0.00,13.70,2.04,0.00,0.00,0.00,0.00,23.85,19.72,1.96,9.85,18.17,0.00,8.20,1.51,3.64,0.00,0.00,0.17
0,42.87,45.57,16.00,16.25,14.24,0.00,0.00,1.78,21.78,0.00,0.00,3.58,14.42,0.00,13.70,2.03,0.00,0.00,0.00,0.00,23.66,19.72,1.96,9.95,17.49,0.00,8.20,1.43,3.61,0.00,0.00,0.17
0,43.66,45.57,16.00,16.55,14.66,0.00,0.00,1.84,21.56,0.00,0.00,3.55,14.32,0.00,12.33,2.02,0.00,0.00,0.00,0.00,23.31,16.90,1.96,9.40,17.50,0.00,6.56,1.43,3.78,0.00,0.00,0.18
0,44.03,45.57,16.00,16.74,14.27,0.00,0.00,1.82,21.35,0.00,0.00,3.53,14.03,0.00,12.33,1.87,0.00,0.00,0.00,0.00,22.28,14.08,1.96,8.14,16.87,0.00,4.92,1.33,3.77,0.00,0.00,0.18
0,44.03,45.57,16.00,16.87,13.93,0.00,0.00,1.73,21.59,0.00,0.00,3.62,14.27,0.00,15.07,1.87,0.00,0.00,0.00,0.00,22.29,14.08,1.96,8.12,16.55,0.00,4.92,1.28,3.78,0.00,0.00,0.18
0,43.18,45.57,18.00,16.10,13.79,0.00,0.00,1.71,22.86,0.00,0.00,4.08,14.14,0.00,13.70,1.89,0.00,0.00,0.00,0.00,22.67,14.08,1.96,8.38,16.55,0.00,4.92,1.28,3.75,0.00,0.00,0.18
0,41.12,41.77,16.00,15.14,13.80,0.00,0.00,1.71,22.86,0.00,0.00,4.11,14.31,0.00,13.70,1.90,0.00,0.00,0.00,0.00,21.74,11.27,1.96,8.20,16.19,0.00,4.92,1.23,3.68,0.00,0.00,0.17
0,41.83,43.04,16.00,15.10,13.38,0.00,0.00,1.63,22.92,0.00,0.00,4.14,13.92,0.00,10.96,1.78,0.00,0.00,0.00,0.00,21.94,12.68,1.96,8.06,16.35,0.00,4.92,1.26,3.78,0.00,0.00,0.18
0,40.83,43.04,16.00,14.73,13.52,0.00,0.00,1.67,22.63,0.00,0.00,4.21,13.85,0.00,10.96,1.69,0.00,0.00,0.00,0.00,20.45,9.86,1.96,6.85,16.77,0.00,4.92,1.31,3.78,0.00,0.00,0.18
0,40.18,41.77,16.00,14.36,12.98,0.00,0.00,1.59,22.38,0.00,0.00,4.42,14.18,0.00,12.33,1.74,0.00,0.00,0.00,0.00,19.21,8.45,1.96,6.29,15.90,0.00,1.64,1.15,3.57,0.00,0.00,0.16
0,36.41,36.71,12.00,12.39,12.80,0.00,0.00,1.57,22.19,0.00,0.00,4.35,13.90,0.00,10.96,1.61,0.00,0.00,0.00,0.00,17.62,7.04,0.00,5.64,16.33,0.00,1.64,1.21,3.42,0.00,0.00,0.15
0,34.26,31.65,12.00,10.98,12.52,0.00,0.00,1.53,22.52,0.00,0.00,4.47,13.60,0.00,9.59,1.57,0.00,0.00,0.00,0.00,15.95,5.63,0.00,4.29,16.36,0.00,1.64,1.21,3.43,0.00,0.00,0.15
0,32.49,26.58,8.00,10.17,12.62,0.00,0.00,1.57,22.52,0.00,0.00,4.42,13.41,0.00,9.59,1.55,0.00,0.00,0.00,0.00,16.30,8.45,0.00,4.52,16.96,0.00,1.64,1.28,3.43,0.00,0.00,0.15
0,30.54,22.78,8.00,8.92,12.90,0.00,0.00,1.59,22.89,0.00,0.00,4.38,13.71,0.00,10.96,1.61,0.00,0.00,0.00,0.00,15.96,8.45,0.00,4.17,17.02,0.00,1.64,1.29,3.56,0.00,0.00,0.16
0,29.59,21.52,8.00,8.59,12.55,0.00,0.00,1.53,23.65,0.00,0.00,4.61,13.53,0.00,10.96,1.60,0.00,0.00,0.00,0.00,15.88,8.45,0.00,4.15,17.15,0.00,1.64,1.29,3.50,0.00,0.00,0.15
0,29.55,20.25,8.00,8.57,12.73,0.00,0.00,1.56,23.00,0.00,0.00,4.40,13.48,0.00,12.33,1.59,0.00,0.00,0.00,0.00,14.94,7.04,0.00,3.71,17.35,0.00,1.64,1.33,3.44,0.00,0.00,0.14
0,28.64,20.25,6.00,8.21,12.12,0.00,0.00,1.47,22.67,0.00,0.00,4.33,13.58,0.00,12.33,1.60,0.00,0.00,0.00,0.00,15.56,7.04,0.00,4.01,17.32,0.00,1.64,1.32,3.47,0.00,0.00,0.14
0,28.37,18.99,6.00,7.85,12.28,0.00,0.00,1.49,22.50,0.00,0.00,4.10,13.79,0.00,12.33,1.67,0.00,0.00,0.00,0.00,15.14,7.04,0.00,3.90,17.28,0.00,0.00,1.30,3.42,0.00,0.00,0.14
0,29.47,21.52,8.00,8.21,12.64,0.00,0.00,1.50,22.07,0.00,0.00,4.12,14.24,0.00,13.70,1.74,0.00,0.00,0.00,0.00,15.40,7.04,0.00,4.03,16.93,0.00,0.00,1.29,3.50,0.00,0.00,0.14
0,29.59,22.78,8.00,8.89,12.22,0.00,0.00,1.39,21.67,0.00,0.00,4.01,13.87,0.00,13.70,1.67,0.00,0.00,0.00,0.00,15.57,7.04,0.00,4.11,16.63,0.00,0.00,1.27,3.52,0.00,0.00,0.14
0,29.28,22.78,8.00,8.84,12.04,0.00,0.00,1.33,21.71,0.00,0.00,3.90,13.87,0.00,15.07,1.68,0.00,0.00,0.00,0.00,14.94,5.63,0.00,3.85,16.72,0.00,0.00,1.36,3.57,0.00,0.00,0.14
0,31.26,25.32,10.00,10.05,12.12,0.00,0.00,1.40,21.29,0.00,0.00,3.71,14.47,0.00,17.81,1.76,0.00,0.00,0.00,0.00,16.48,8.45,0.00,4.33,16.35,0.00,0.00,1.34,3.62,0.00,0.00,0.15
0,30.92,24.05,8.00,9.83,12.41,0.00,0.00,1.48,22.04,0.00,0.00,4.12,14.47,0.00,19.18,1.77,0.00,0.00,0.00,0.00,17.33,9.86,0.00,5.28,16.48,0.00,0.00,1.35,3.72,0.00,0.00,0.17
0,30.30,24.05,8.00,9.63,12.36,0.00,0.00,1.48,22.54,0.00,0.00,4.29,14.68,0.00,20.55,1.80,0.00,0.00,0.00,0.00,16.76,8.45,0.00,5.25,15.99,0.00,0.00,1.29,3.70,0.00,0.00,0.17
0,30.53,24.05,8.00,9.52,12.72,0.00,0.00,1.56,22.86,0.00,0.00,4.35,14.66,0.00,19.18,1.85,0.00,0.00,0.00,0.00,16.28,8.45,0.00,4.94,16.11,0.00,0.00,1.30,3.71,0.00,0.00,0.17
0,30.59,24.05,8.00,9.62,12.94,0.00,0.00,1.60,23.49,0.00,0.00,4.43,14.48,0.00,16.44,1.82,0.00,0.00,0.00,0.00,17.39,9.86,0.00,5.54,15.99,0.00,0.00,1.30,3.66,0.00,0.00,0.17
0,30.08,22.78,4.00,9.11,12.96,0.00,0.00,1.59,22.81,0.00,0.00,4.23,14.61,0.00,16.44,1.85,0.00,0.00,0.00,0.00,17.29,9.86,0.00,5.56,15.93,0.00,0.00,1.25,3.74,0.00,0.00,0.18
0,29.91,22.78,4.00,9.19,12.99,0.00,0.00,1.57,22.38,0.00,0.00,4.07,14.52,0.00,16.44,1.82,0.00,0.00,0.00,0.00,18.11,11.27,0.00,5.69,16.30,0.00,0.00,1.31,3.74,0.00,0.00,0.17
0,29.34,20.25,4.00,8.77,13.23,0.00,0.00,1.59,21.86,0.00,0.00,3.92,14.56,0.00,16.44,1.87,0.00,0.00,0.00,0.00,17.70,9.86,0.00,5.78,16.42,0.00,0.00,1.33,3.63,0.00,0.00,0.16
0,29.06,18.99,4.00,8.68,13.00,0.00,0.00,1.57,21.36,0.00,0.00,3.76,14.31,0.00,16.44,1.86,0.00,0.00,0.00,0.00,17.94,9.86,0.00,5.66,15.92,0.00,0.00,1.27,3.59,0.00,0.00,0.16
0,29.50,20.25,4.00,8.91,13.54,0.00,0.00,1.63,20.87,0.00,0.00,3.45,14.39,0.00,16.44,1.87,0.00,0.00,0.00,0.00,18.44,9.86,0.00,5.86,16.32,0.00,0.00,1.30,3.68,0.00,0.00,0.16
0,29.61,20.25,4.00,8.90,13.41,0.00,0.00,1.61,21.24,0.00,0.00,3.38,14.41,0.00,16.44,1.82,0.00,0.00,0.00,0.00,18.35,9.86,0.00,5.86,15.91,0.00,0.00,1.27,3.64,0.00,0.00,0.16
0,30.91,22.78,4.00,9.39,13.39,0.00,0.00,1.59,20.59,0.00,0.00,3.21,14.20,0.00,16.44,1.78,0.00,0.00,0.00,0.00,18.49,9.86,0.00,5.88,15.60,0.00,0.00,1.23,3.63,0.00,0.00,0.16
0,30.83,22.78,4.00,9.37,13.28,0.00,0.00,1.55,20.54,0.00,0.00,3.21,14.14,0.00,16.44,1.78,0.00,0.00,0.00,0.00,17.87,7.04,0.00,5.51,15.12,0.00,0.00,1.17,3.69,0.00,0.00,0.16
0,31.08,24.05,4.00,9.58,12.87,0.00,0.00,1.49,20.61,0.00,0.00,3.18,14.48,0.00,16.44,1.87,0.00,0.00,0.00,0.00,17.99,7.04,0.00,5.63,15.34,0.00,0.00,1.21,3.58,0.00,0.00,0.15
0,31.30,25.32,4.00,9.66,12.70,0.00,0.00,1.49,20.06,0.00,0.00,3.08,14.18,0.00,15.07,1.81,0.00,0.00,0.00,0.00,18.20,7.04,0.00,5.74,15.57,0.00,0.00,1.21,3.70,0.00,0.00,0.17
0,30.01,24.05,4.00,8.99,12.24,0.00,0.00,1.41,20.15,0.00,0.00,3.13,14.11,0.00,13.70,1.77,0.00,0.00,0.00,0.00,18.26,7.04,0.00,5.71,15.21,0.00,0.00,1.16,3.69,0.00,0.00,0.18
0,29.22,21.52,4.00,8.70,12.55,0.00,0.00,1.48,19.92,0.00,0.00,3.07,14.37,0.00,15.07,1.85,0.00,0.00,0.00,0.00,18.02,8.45,0.00,5.88,14.80,0.00,0.00,1.11,3.58,0.00,0.00,0.17
0,28.99,21.52,4.00,8.25,12.67,0.00,0.00,1.50,19.78,0.00,0.00,3.06,14.10,0.00,13.70,1.72,0.00,0.00,0.00,0.00,18.54,8.45,0.00,6.07,14.47,0.00,0.00,1.06,3.73,0.00,0.00,0.18
0,30.17,25.32,4.00,9.03,12.39,0.00,0.00,1.48,19.65,0.00,0.00,2.95,14.07,0.00,15.07,1.75,0.00,0.00,0.00,0.00,18.66,8.45,0.00,6.11,14.74,0.00,0.00,1.09,3.76,0.00,0.00,0.18
0,29.89,24.05,4.00,9.00,12.26,0.00,0.00,1.47,19.61,0.00,0.00,2.95,13.84,0.00,15.07,1.71,0.00,0.00,0.00,0.00,18.53,8.45,0.00,6.11,14.89,0.00,0.00,1.11,3.73,0.00,0.00,0.18
0,30.86,24.05,4.00,9.30,12.25,0.00,0.00,1.49,19.73,0.00,0.00,3.01,13.58,0.00,13.70,1.62,0.00,0.00,0.00,0.00,18.46,8.45,0.00,6.10,14.73,0.00,0.00,1.07,3.80,0.00,0.00,0.19
0,30.28,21.52,2.00,9.32,12.22,0.00,0.00,1.48,19.89,0.00,0.00,3.08,13.39,0.00,10.96,1.56,0.00,0.00,0.00,0.00,18.86,8.45,0.00,6.28,14.72,0.00,0.00,1.07,3.57,0.00,0.00,0.16
0,29.78,20.25,2.00,8.26,11.77,0.00,0.00,1.43,19.35,0.00,0.00,2.69,13.38,0.00,10.96,1.63,0.00,0.00,0.00,0.00,18.27,7.04,0.00,5.60,15.14,0.00,0.00,1.17,3.47,0.00,0.00,0.15
0,31.14,22.78,2.00,8.59,11.64,0.00,0.00,1.39,19.46,0.00,0.00,2.85,13.05,0.00,9.59,1.55,0.00,0.00,0.00,0.00,18.14,7.04,0.00,5.53,15.32,0.00,0.00,1.18,3.48,0.00,0.00,0.15
0,30.92,24.05,2.00,8.74,11.68,0.00,0.00,1.35,19.00,0.00,0.00,2.78,12.87,0.00,8.22,1.48,0.00,0.00,0.00,0.00,18.35,7.04,0.00,5.62,15.20,0.00,0.00,1.17,3.38,0.00,0.00,0.13
0,30.45,22.78,2.00,8.48,11.99,0.00,0.00,1.43,18.19,0.00,0.00,2.57,13.24,0.00,9.59,1.57,0.00,0.00,0.00,0.00,18.70,8.45,0.00,5.84,16.15,0.00,0.00,1.30,3.36,0.00,0.00,0.13
0,30.44,22.78,2.00,8.35,12.47,0.00,0.00,1.55,18.86,0.00,0.00,2.88,13.22,0.00,10.96,1.59,0.00,0.00,0.00,0.00,18.85,8.45,0.00,5.62,16.46,0.00,0.00,1.36,3.38,0.00,0.00,0.13
0,30.40,21.52,2.00,8.18,12.21,0.00,0.00,1.53,19.41,0.00,0.00,3.12,13.50,0.00,12.33,1.64,0.00,0.00,0.00,0.00,18.65,8.45,0.00,5.37,15.82,0.00,0.00,1.28,3.27,0.00,0.00,0.13
0,30.32,21.52,2.00,8.19,12.04,0.00,0.00,1.51,19.42,0.00,0.00,3.14,13.28,0.00,12.33,1.58,0.00,0.00,0.00,0.00,18.92,8.45,0.00,5.60,15.58,0.00,0.00,1.24,3.31,0.00,0.00,0.13
0,30.98,22.78,2.00,8.38,11.95,0.00,0.00,1.49,19.69,0.00,0.00,3.17,13.53,0.00,12.33,1.62,0.00,0.00,0.00,0.00,19.18,8.45,0.00,5.88,15.87,0.00,0.00,1.27,3.40,0.00,0.00,0.13
0,30.40,21.52,2.00,8.10,11.70,0.00,0.00,1.43,20.73,0.00,0.00,3.28,13.56,0.00,12.33,1.66,0.00,0.00,0.00,0.00,19.51,8.45,0.00,5.90,15.78,0.00,0.00,1.24,3.46,0.00,0.00,0.14
0,31.96,24.05,4.00,8.93,11.84,0.00,0.00,1.48,20.26,0.00,0.00,3.27,13.32,0.00,12.33,1.63,0.00,0.00,0.00,0.00,20.18,9.86,0.00,6.22,16.76,0.00,3.28,1.40,3.52,0.00,0.00,0.14
0,32.23,25.32,4.00,9.14,12.16,0.00,0.00,1.57,21.02,0.00,0.00,3.57,13.91,0.00,13.70,1.72,0.00,0.00,0.00,0.00,20.58,9.86,0.00,6.28,16.93,0.00,3.28,1.41,3.42,0.00,0.00,0.14
0,31.93,22.78,4.00,9.03,12.26,0.00,0.00,1.55,21.16,0.00,0.00,3.53,14.13,0.00,13.70,1.71,0.00,0.00,0.00,0.00,21.18,9.86,0.00,6.72,16.91,0.00,3.28,1.43,3.23,0.00,0.00,0.12
0,33.43,26.58,4.00,9.63,12.94,0.00,0.00,1.65,20.51,0.00,0.00,3.42,13.59,0.00,12.33,1.58,0.00,0.00,0.00,0.00,21.09,9.86,0.00,6.70,17.21,0.00,3.28,1.48,3.23,0.00,0.00,0.12
0,33.10,24.05,4.00,9.42,12.98,0.00,0.00,1.66,20.80,0.00,0.00,3.42,13.60,0.00,12.33,1.58,0.00,0.00,0.00,0.00,21.54,9.86,0.00,6.98,17.14,0.00,3.28,1.51,2.96,0.00,0.00,0.10
0,33.49,24.05,4.00,9.55,13.15,0.00,0.00,1.67,20.80,0.00,0.00,3.43,14.04,0.00,13.70,1.72,0.00,0.00,0.00,0.00,22.15,9.86,0.00,7.22,17.11,0.00,3.28,1.51,2.82,0.00,0.00,0.09
0,34.52,25.32,4.00,10.07,13.05,0.00,0.00,1.67,20.56,0.00,0.00,3.35,13.73,0.00,12.33,1.65,0.00,0.00,0.00,0.00,23.01,11.27,0.00,7.55,17.47,0.00,3.28,1.58,2.89,0.00,0.00,0.09
0,35.10,27.85,4.00,10.52,12.75,0.00,0.00,1.62,20.76,0.00,0.00,3.41,13.74,0.00,12.33,1.67,0.00,0.00,0.00,0.00,22.40,9.86,0.00,7.18,17.89,0.00,3.28,1.62,2.86,0.00,0.00,0.09
0,34.44,25.32,4.00,10.32,13.17,0.00,0.00,1.69,20.27,0.00,0.00,3.35,13.30,0.00,9.59,1.55,0.00,0.00,0.00,0.00,22.89,11.27,0.00,7.70,17.96,0.00,3.28,1.64,2.90,0.00,0.00,0.09
0,32.95,22.78,2.00,9.08,13.47,0.00,0.00,1.72,21.32,0.00,0.00,3.91,13.38,0.00,9.59,1.55,0.00,0.00,0.00,0.00,23.46,14.08,0.00,8.06,18.07,0.00,3.28,1.66,2.98,0.00,0.00,0.09
0,33.34,22.78,2.00,8.91,13.60,0.00,0.00,1.77,21.63,0.00,0.00,3.96,13.56,0.00,9.59,1.58,0.00,0.00,0.00,0.00,24.57,15.49,0.00,8.42,17.93,0.00,3.28,1.60,2.94,0.00,0.00,0.09
0,32.34,22.78,2.00,8.63,13.87,0.00,0.00,1.75,22.09,0.00,0.00,4.46,13.72,0.00,10.96,1.67,0.00,0.00,0.00,0.00,24.18,14.08,0.00,8.20,17.62,0.00,3.28,1.55,2.92,0.00,0.00,0.09
0,31.49,22.78,2.00,8.53,13.80,0.00,0.00,1.74,22.22,0.00,0.00,4.54,13.64,0.00,10.96,1.68,0.00,0.00,0.00,0.00,22.89,12.68,0.00,7.54,17.39,0.00,3.28,1.47,2.97,0.00,0.00,0.10
0,31.56,22.78,2.00,8.67,14.03,0.00,0.00,1.76,21.74,0.00,0.00,4.28,14.18,0.00,12.33,1.77,0.00,0.00,0.00,0.00,23.00,12.68,0.00,7.79,16.98,0.00,3.28,1.40,2.99,0.00,0.00,0.10
0,30.94,21.52,2.00,8.34,13.70,0.00,0.00,1.72,22.35,0.00,0.00,4.52,13.91,0.00,12.33,1.75,0.00,0.00,0.00,0.00,22.48,12.68,0.00,7.70,17.22,0.00,3.28,1.41,3.03,0.00,0.00,0.10
0,30.00,20.25,2.00,8.02,13.37,0.00,0.00,1.61,22.40,0.00,0.00,4.50,13.72,0.00,10.96,1.69,0.00,0.00,0.00,0.00,23.02,12.68,0.00,7.89,16.69,0.00,4.92,1.34,3.04,0.00,0.00,0.10
0,29.68,18.99,2.00,7.95,12.95,0.00,0.00,1.47,22.19,0.00,0.00,4.39,13.95,0.00,10.96,1.69,0.00,0.00,0.00,0.00,22.04,9.86,0.00,7.49,16.48,0.00,4.92,1.31,3.02,0.00,0.00,0.10
0,29.49,18.99,2.00,8.02,13.18,0.00,0.00,1.50,21.68,0.00,0.00,4.18,13.57,0.00,9.59,1.60,0.00,0.00,0.00,0.00,21.47,9.86,0.00,7.36,16.58,0.00,4.92,1.33,3.14,0.00,0.00,0.11
0,29.50,18.99,2.00,8.10,13.67,0.00,0.00,1.61,22.07,0.00,0.00,4.11,13.77,0.00,10.96,1.69,0.00,0.00,0.00,0.00,20.88,9.86,0.00,7.07,16.99,0.00,4.92,1.47,3.13,0.00,0.00,0.11
0,28.94,17.72,2.00,7.90,14.00,0.00,0.00,1.67,22.32,0.00,0.00,4.20,14.00,0.00,10.96,1.72,0.00,0.00,0.00,0.00,20.20,8.45,0.00,6.65,17.04,0.00,4.92,1.49,2.99,0.00,0.00,0.10
0,27.55,16.46,2.00,7.37,13.98,0.00,0.00,1.68,22.43,0.00,0.00,4.25,13.87,0.00,9.59,1.66,0.00,0.00,0.00,0.00,19.74,8.45,0.00,6.56,17.44,0.00,4.92,1.53,2.96,0.00,0.00,0.10
0,26.37,13.92,0.00,6.66,14.23,0.00,0.00,1.74,22.90,0.00,0.00,4.32,14.03,0.00,9.59,1.69,0.00,0.00,0.00,0.00,20.09,8.45,0.00,6.71,16.72,0.00,1.64,1.42,2.96,0.00,0.00,0.10
0,25.50,13.92,0.00,6.46,14.23,0.00,0.00,1.76,23.28,0.00,0.00,4.59,14.07,0.00,9.59,1.72,0.00,0.00,0.00,0.00,20.19,8.45,0.00,6.74,17.02,0.00,1.64,1.46,2.92,0.00,0.00,0.10
0,26.19,16.46,0.00,6.71,13.98,0.00,0.00,1.70,23.16,0.00,0.00,4.58,14.28,0.00,10.96,1.80,0.00,0.00,0.00,0.00,19.28,8.45,0.00,6.14,17.14,0.00,1.64,1.46,3.04,0.00,0.00,0.11
0,25.39,16.46,0.00,6.50,13.76,0.00,0.00,1.71,23.26,0.00,0.00,4.59,14.36,0.00,12.33,1.83,0.00,0.00,0.00,0.00,19.41,8.45,0.00,6.16,16.99,0.00,1.64,1.42,3.14,0.00,0.00,0.11
0,24.59,13.92,0.00,6.11,14.14,0.00,0.00,1.78,23.19,0.00,0.00,4.55,14.33,0.00,12.33,1.84,0.00,0.00,0.00,0.00,18.55,8.45,0.00,5.84,17.43,0.00,1.64,1.41,3.20,0.00,0.00,0.11
0,24.41,13.92,0.00,6.00,14.49,0.00,0.00,1.92,22.61,0.00,0.00,4.46,13.95,0.00,10.96,1.72,0.00,0.00,0.00,0.00,18.11,8.45,0.00,5.51,17.61,0.00,1.64,1.42,3.21,0.00,0.00,0.12
0,23.21,12.66,0.00,5.48,14.50,0.00,0.00,1.94,23.32,0.00,0.00,4.62,14.10,0.00,10.96,1.80,0.00,0.00,0.00,0.00,17.46,7.04,0.00,5.36,17.63,0.00,1.64,1.39,3.16,0.00,0.00,0.11
0,22.68,10.13,0.00,5.13,14.77,0.00,0.00,1.96,24.08,0.00,0.00,4.71,13.80,0.00,10.96,1.77,0.00,0.00,0.00,0.00,17.04,7.04,0.00,4.91,17.77,0.00,1.64,1.39,3.11,0.00,0.00,0.11
0,23.07,10.13,0.00,5.01,14.67,0.00,0.00,1.98,24.38,0.00,0.00,4.73,13.87,0.00,10.96,1.79,0.00,0.00,0.00,0.00,17.42,7.04,0.00,5.03,17.77,0.00,1.64,1.41,3.07,0.00,0.00,0.11
0,22.89,10.13,0.00,4.96,14.68,0.00,0.00,1.99,24.18,0.00,0.00,4.40,13.83,0.00,10.96,1.81,0.00,0.00,0.00,0.00,16.00,2.82,0.00,4.21,17.68,0.00,1.64,1.37,2.94,0.00,0.00,0.10
0,22.75,8.86,0.00,4.82,14.10,0.00,0.00,1.88,24.46,0.00,0.00,4.45,13.86,0.00,10.96,1.81,0.00,0.00,0.00,0.00,15.33,1.41,0.00,4.01,17.73,0.00,1.64,1.41,2.95,0.00,0.00,0.10
0,23.45,10.13,0.00,4.98,14.04,0.00,0.00,1.90,23.82,0.00,0.00,3.94,13.77,0.00,10.96,1.80,0.00,0.00,0.00,0.00,15.65,1.41,0.00,3.99,18.50,0.00,1.64,1.49,3.00,0.00,0.00,0.10
0,23.27,8.86,0.00,5.15,13.77,0.00,0.00,1.83,23.32,0.00,0.00,3.81,13.89,0.00,10.96,1.78,0.00,0.00,0.00,0.00,15.50,1.41,0.00,3.86,18.66,0.00,1.64,1.52,2.93,0.00,0.00,0.10
0,22.51,6.33,0.00,4.88,14.09,0.00,0.00,1.90,23.24,0.00,0.00,3.86,13.66,0.00,10.96,1.72,0.00,0.00,0.00,0.00,14.94,1.41,0.00,3.53,19.28,0.00,1.64,1.60,2.88,0.00,0.00,0.10
0,22.14,6.33,0.00,4.66,13.78,0.00,0.00,1.82,23.52,0.00,0.00,3.91,14.09,0.00,12.33,1.87,0.00,0.00,0.00,0.00,15.06,1.41,0.00,3.48,19.17,0.00,1.64,1.60,2.94,0.00,0.00,0.10
0,22.24,6.33,0.00,4.76,13.65,0.00,0.00,1.79,23.63,0.00,0.00,3.92,14.07,0.00,12.33,1.86,0.00,0.00,0.00,0.00,14.42,1.41,0.00,3.14,18.79,0.00,0.00,1.55,2.97,0.00,0.00,0.10
0,21.52,6.33,0.00,4.55,13.89,0.00,0.00,1.86,23.63,0.00,0.00,3.84,13.96,0.00,10.96,1.83,0.00,0.00,0.00,0.00,13.89,1.41,0.00,2.96,18.75,0.00,0.00,1.53,3.04,0.00,0.00,0.10
0,21.22,6.33,0.00,4.41,14.09,0.00,0.00,1.88,23.70,0.00,0.00,3.96,13.95,0.00,10.96,1.85,0.00,0.00,0.00,0.00,14.08,1.41,0.00,2.94,18.70,0.00,0.00,1.50,2.93,0.00,0.00,0.10
0,20.54,6.33,0.00,4.20,13.92,0.00,0.00,1.84,23.40,0.00,0.00,3.82,13.46,0.00,9.59,1.72,0.00,0.00,0.00,0.00,13.77,1.41,0.00,2.81,18.41,0.00,0.00,1.42,2.90,0.00,0.00,0.09
0,20.61,6.33,0.00,4.21,13.58,0.00,0.00,1.77,22.73,0.00,0.00,3.68,13.98,0.00,12.33,1.83,0.00,0.00,0.00,0.00,13.83,1.41,0.00,2.76,18.38,0.00,0.00,1.37,3.26,0.00,0.00,0.14
0,21.24,6.33,0.00,4.33,13.85,0.00,0.00,1.84,23.05,0.00,0.00,3.89,14.83,0.00,15.07,2.01,0.00,0.00,0.00,0.00,14.40,1.41,0.00,2.93,19.08,0.00,1.64,1.47,3.87,0.00,0.00,0.25
1,22.27,7.59,0.00,4.64,13.46,0.00,0.00,1.72,23.49,0.00,0.00,4.17,15.37,0.00,17.81,2.28,0.00,0.00,0.00,0.00,13.75,1.41,0.00,2.72,18.88,0.00,1.64,1.45,4.48,0.00,0.00,0.43
1,23.43,7.59,0.00,5.11,13.55,0.00,0.00,1.71,23.13,0.00,0.00,4.01,15.50,0.00,17.81,2.36,0.00,0.00,0.00,0.00,12.88,0.00,0.00,2.26,18.58,0.00,1.64,1.41,4.95,0.00,0.00,0.53
1,24.01,6.33,0.00,5.18,13.44,0.00,0.00,1.68,27.47,10.26,0.00,6.23,16.13,0.00,20.55,2.84,0.00,0.00,0.00,0.00,13.68,1.41,0.00,2.59,20.88,6.25,6.56,1.87,6.06,0.00,0.00,0.88
1,23.09,3.80,0.00,4.73,13.34,0.00,0.00,1.63,29.93,15.38,0.00,7.71,16.92,0.00,20.55,3.65,0.00,0.00,0.00,0.00,13.19,1.41,0.00,2.56,23.93,9.38,14.75,3.33,7.85,2.56,0.00,1.96
1,25.38,7.59,0.00,5.90,13.62,0.00,0.00,1.70,34.84,20.51,0.00,12.30,19.16,2.44,24.66,5.62,0.00,0.00,0.00,0.00,14.78,2.82,0.00,3.03,25.24,9.38,18.03,3.93,10.56,2.56,0.00,4.03
1,27.34,11.39,4.00,7.34,13.15,0.00,0.00,1.53,38.67,23.08,0.00,16.19,21.14,2.44,28.77,6.93,0.00,0.00,0.00,0.00,14.96,2.82,0.00,3.47,25.84,9.38,19.67,4.36,14.44,5.13,0.00,8.38
1,28.61,13.92,4.00,8.05,12.96,0.00,0.00,1.49,43.14,25.64,0.00,21.14,23.94,4.88,31.51,9.75,0.00,0.00,0.00,0.00,15.37,2.82,0.00,3.57,26.71,9.38,19.67,4.99,17.82,7.69,0.00,12.28
1,29.88,16.46,4.00,8.65,12.98,0.00,0.00,1.51,44.86,28.21,0.00,22.30,26.18,7.32,35.62,10.87,0.00,0.00,0.00,0.00,15.58,2.82,0.00,3.58,27.98,9.38,21.31,5.26,22.37,12.82,5.00,16.85
1,30.19,18.99,4.00,9.04,12.90,0.00,0.00,1.47,49.42,33.33,0.00,25.40,27.68,9.76,38.36,11.84,0.00,0.00,0.00,0.00,15.95,4.23,0.00,3.71,29.13,9.38,24.59,5.60,26.47,17.95,10.00,20.43
1,30.70,21.52,4.00,9.28,12.71,0.00,0.00,1.44,51.60,35.90,0.00,28.40,29.61,9.76,42.47,13.31,0.00,0.00,0.00,0.00,16.72,4.23,0.00,4.08,30.55,9.38,26.23,6.08,31.52,25.64,15.00,30.98
1,30.70,21.52,4.00,9.38,13.04,0.00,0.00,1.50,53.59,38.46,0.00,29.80,30.40,9.76,43.84,14.03,0.00,0.00,0.00,0.00,17.87,5.63,0.00,4.45,30.79,9.38,26.23,6.25,32.55,25.64,15.00,31.67
1,31.65,24.05,4.00,9.80,12.90,0.00,0.00,1.45,56.04,41.03,0.00,31.18,31.38,9.76,43.84,14.09,0.00,0.00,0.00,0.00,18.24,7.04,0.00,5.08,31.58,9.38,27.87,6.46,34.79,28.21,15.00,32.65
1,30.67,22.78,4.00,9.20,13.58,0.00,0.00,1.62,58.75,46.15,0.00,32.99,34.62,12.20,47.95,16.54,0.00,0.00,0.00,0.00,18.03,7.04,0.00,5.15,33.03,9.38,31.15,7.06,38.88,33.33,15.00,36.23
1,31.43,25.32,4.00,9.75,13.34,0.00,0.00,1.63,60.84,48.72,0.00,33.39,35.56,12.20,47.95,16.63,0.00,0.00,0.00,0.00,18.39,8.45,0.00,5.53,33.18,9.38,32.79,7.09,41.33,35.90,15.00,37.00
1,32.20,26.58,4.00,9.99,13.68,0.00,0.00,1.72,62.76,51.28,0.00,35.07,36.14,12.20,50.68,17.30,0.00,0.00,0.00,0.00,18.88,8.45,0.00,5.60,33.59,9.38,32.79,7.11,45.56,41.03,20.00,41.80
1,32.60,26.58,4.00,10.11,13.63,0.00,0.00,1.69,63.98,51.28,0.00,35.46,37.42,12.20,53.42,17.63,0.00,0.00,0.00,0.00,19.52,8.45,0.00,5.82,34.60,9.38,36.07,7.41,47.65,41.03,20.00,42.84
1,33.33,29.11,4.00,10.34,13.18,0.00,0.00,1.62,64.65,51.28,0.00,35.75,37.42,12.20,53.42,17.65,0.00,0.00,0.00,0.00,20.22,8.45,0.00,6.09,34.65,9.38,36.07,7.39,48.72,41.03,20.00,43.15
1,35.25,32.91,4.00,10.94,13.08,0.00,0.00,1.60,66.01,53.85,0.00,36.32,38.95,12.20,57.53,18.13,0.00,0.00,0.00,0.00,20.84,8.45,0.00,6.52,36.35,9.38,37.70,8.22,50.70,41.03,20.00,44.26
1,35.62,32.91,4.00,11.04,13.48,0.00,0.00,1.75,68.35,58.97,0.00,37.70,40.52,14.63,60.27,18.87,0.00,0.00,0.00,0.00,21.21,8.45,0.00,6.60,37.64,9.38,40.98,8.64,53.48,46.15,20.00,46.07
1,35.77,32.91,4.00,11.03,13.65,0.00,0.00,1.76,68.76,58.97,0.00,37.88,41.01,14.63,61.64,18.93,0.00,0.00,0.00,0.00,23.02,11.27,0.00,7.39,38.29,9.38,42.62,8.73,55.14,46.15,20.00,46.98
1,35.69,32.91,4.00,11.03,13.62,0.00,0.00,1.74,68.98,58.97,0.00,37.94,40.75,14.63,60.27,18.84,0.00,0.00,0.00,0.00,22.94,12.68,0.00,7.67,37.59,9.38,40.98,8.66,54.82,46.15,20.00,46.91
1,35.90,32.91,6.00,11.45,13.85,0.00,0.00,1.81,69.09,58.97,0.00,37.63,39.91,14.63,57.53,18.52,0.00,0.00,0.00,0.00,22.80,12.68,0.00,7.61,37.27,9.38,40.98,8.59,55.15,46.15,20.00,47.10
1,36.98,34.18,6.00,11.88,14.16,0.00,0.00,1.84,69.81,58.97,0.00,37.91,39.87,14.63,57.53,18.45,0.00,0.00,0.00,0.00,24.18,15.49,0.00,8.71,37.73,9.38,40.98,8.65,55.77,46.15,20.00,47.37
1,35.65,32.91,6.00,11.37,14.23,0.00,0.00,1.91,69.07,53.85,0.00,37.33,39.75,14.63,57.53,18.45,0.00,0.00,0.00,0.00,23.63,14.08,0.00,8.49,36.47,6.25,36.07,8.47,55.94,46.15,20.00,47.55
1,36.01,32.91,6.00,11.53,14.43,0.00,0.00,1.96,64.90,43.59,0.00,35.20,38.90,14.63,57.53,17.79,0.00,0.00,0.00,0.00,24.66,15.49,0.00,9.00,32.80,0.00,29.51,6.97,55.44,46.15,20.00,47.10
1,34.65,30.38,6.00,11.29,14.15,0.00,0.00,1.91,61.89,41.03,0.00,30.85,36.94,12.20,56.16,15.45,0.00,0.00,0.00,0.00,24.29,15.49,0.00,8.72,31.52,0.00,24.59,6.46,53.73,46.15,20.00,45.46
1,32.09,27.85,2.00,9.25,14.03,0.00,0.00,1.84,58.58,38.46,0.00,27.99,36.01,12.20,53.42,14.94,0.00,0.00,0.00,0.00,24.39,15.49,0.00,8.67,31.23,0.00,26.23,6.23,51.25,43.59,20.00,43.26
1,31.74,26.58,2.00,9.13,14.27,0.00,0.00,1.95,53.76,35.90,0.00,23.54,32.49,9.76,49.32,11.70,0.00,0.00,0.00,0.00,23.78,15.49,0.00,8.64,29.57,0.00,26.23,5.52,48.85,41.03,20.00,38.36
1,31.16,24.05,2.00,8.61,13.84,0.00,0.00,1.88,51.72,35.90,0.00,21.55,31.18,9.76,46.58,11.18,0.00,0.00,0.00,0.00,23.71,15.49,0.00,8.64,28.55,0.00,24.59,5.29,47.31,38.46,15.00,37.59
1,30.04,21.52,2.00,8.14,14.02,0.00,0.00,1.88,48.87,33.33,0.00,19.02,29.72,7.32,43.84,9.44,0.00,0.00,0.00,0.00,22.87,14.08,0.00,8.49,27.58,0.00,22.95,4.89,44.26,33.33,10.00,30.92
1,29.30,18.99,2.00,7.73,14.05,0.00,0.00,1.93,44.24,25.64,0.00,14.93,27.06,4.88,38.36,7.98,0.00,0.00,0.00,0.00,22.02,14.08,0.00,8.01,26.19,0.00,22.95,4.48,40.01,25.64,5.00,22.88
1,29.40,18.99,2.00,7.71,13.90,0.00,0.00,1.87,41.98,23.08,0.00,13.39,26.38,4.88,39.73,7.29,0.00,0.00,0.00,0.00,22.33,14.08,0.00,7.97,25.83,0.00,24.59,4.25,38.23,23.08,5.00,20.47
1,29.72,20.25,2.00,7.95,13.82,0.00,0.00,1.89,40.19,20.51,0.00,12.36,25.85,4.88,38.36,7.06,0.00,0.00,0.00,0.00,20.66,11.27,0.00,7.06,25.03,0.00,22.95,4.10,38.94,23.08,5.00,21.59
1,29.56,18.99,2.00,7.86,13.70,0.00,0.00,1.88,37.87,15.38,0.00,10.83,22.82,2.44,32.88,5.02,0.00,0.00,0.00,0.00,20.81,11.27,0.00,7.00,23.48,0.00,19.67,3.67,35.75,17.95,5.00,18.14
1,29.42,16.46,2.00,7.56,13.88,0.00,0.00,1.81,39.27,17.95,0.00,11.25,24.28,2.44,36.99,5.52,0.00,0.00,0.00,0.00,20.41,9.86,0.00,6.65,24.73,0.00,22.95,3.91,38.21,23.08,5.00,19.57
1,29.69,16.46,2.00,8.14,13.99,0.00,0.00,1.80,35.98,12.82,0.00,9.27,22.51,2.44,31.51,4.65,0.00,0.00,0.00,0.00,21.10,9.86,0.00,6.96,24.25,0.00,21.31,3.86,33.69,15.38,0.00,15.18
1,30.05,16.46,2.00,8.09,13.98,0.00,0.00,1.81,34.43,12.82,0.00,8.78,21.50,2.44,28.77,4.35,0.00,0.00,0.00,0.00,20.70,9.86,0.00,6.85,22.88,0.00,18.03,3.61,31.51,15.38,0.00,13.72
1,28.75,15.19,2.00,7.70,13.82,0.00,0.00,1.77,33.61,12.82,0.00,8.41,21.53,2.44,31.51,4.37,0.00,0.00,0.00,0.00,20.26,9.86,0.00,6.61,22.98,0.00,18.03,3.61,31.03,15.38,0.00,13.50
1,27.74,13.92,2.00,7.34,13.99,0.00,0.00,1.84,32.29,10.26,0.00,7.77,20.73,2.44,30.14,3.99,0.00,0.00,0.00,0.00,19.62,9.86,0.00,6.21,21.99,0.00,16.39,3.00,30.08,15.38,0.00,12.73
1,27.13,11.39,2.00,7.30,13.95,0.00,0.00,1.84,30.76,7.69,0.00,6.38,19.73,0.00,28.77,3.37,0.00,0.00,0.00,0.00,19.31,9.86,0.00,6.09,20.69,0.00,13.11,2.42,27.98,10.26,0.00,10.97
1,27.33,11.39,2.00,7.43,13.93,0.00,0.00,1.75,32.24,12.82,0.00,7.53,20.11,0.00,30.14,3.67,0.00,0.00,0.00,0.00,18.45,7.04,0.00,5.76,20.42,0.00,14.75,2.37,27.26,10.26,0.00,10.49
1,26.95,11.39,2.00,7.31,13.58,0.00,0.00,1.71,33.26,12.82,0.00,7.92,20.24,0.00,30.14,3.71,0.00,0.00,0.00,0.00,17.75,5.63,0.00,5.17,20.59,0.00,16.39,2.38,28.12,10.26,0.00,11.00
1,25.56,10.13,0.00,6.57,13.32,0.00,0.00,1.65,33.51,12.82,0.00,8.14,20.98,0.00,32.88,4.01,0.00,0.00,0.00,0.00,17.87,5.63,0.00,5.19,20.70,0.00,16.39,2.40,29.17,12.82,0.00,11.76
1,24.46,10.13,0.00,6.22,13.25,0.00,0.00,1.68,33.50,12.82,0.00,8.36,21.40,0.00,34.25,4.16,0.00,0.00,0.00,0.00,16.51,2.82,0.00,4.13,21.04,0.00,16.39,2.46,30.78,12.82,0.00,12.49
1,23.60,8.86,0.00,5.92,13.18,0.00,0.00,1.65,32.41,12.82,0.00,8.07,20.83,0.00,32.88,3.95,0.00,0.00,0.00,0.00,16.43,2.82,0.00,4.08,20.59,0.00,16.39,2.37,30.35,12.82,0.00,12.34
1,23.54,10.13,0.00,5.98,13.02,0.00,0.00,1.60,31.88,12.82,0.00,7.80,20.71,0.00,31.51,3.85,0.00,0.00,0.00,0.00,15.35,1.41,0.00,3.55,20.36,0.00,16.39,2.35,30.54,12.82,0.00,12.47
1,23.87,10.13,0.00,6.04,13.51,0.00,0.00,1.70,32.65,10.26,0.00,8.37,21.31,0.00,31.51,4.24,0.00,0.00,0.00,0.00,15.22,1.41,0.00,3.51,20.28,0.00,16.39,2.25,30.61,10.26,0.00,12.25
1,23.52,7.59,0.00,5.86,13.48,0.00,0.00,1.69,32.63,10.26,0.00,8.45,21.21,0.00,32.88,4.27,0.00,0.00,0.00,0.00,14.97,0.00,0.00,3.59,19.31,0.00,13.11,2.11,30.67,10.26,0.00,11.97
1,23.86,7.59,0.00,5.90,13.02,0.00,0.00,1.57,32.95,10.26,0.00,8.54,21.41,0.00,34.25,4.34,0.00,0.00,0.00,0.00,14.59,0.00,0.00,3.05,20.01,0.00,13.11,2.19,32.32,12.82,0.00,13.28
1,23.92,8.86,0.00,6.05,13.16,0.00,0.00,1.59,33.99,10.26,0.00,8.99,21.69,0.00,34.25,4.41,0.00,0.00,0.00,0.00,14.61,0.00,0.00,3.12,20.14,0.00,13.11,2.21,31.90,12.82,0.00,13.18
1,24.73,8.86,0.00,6.15,13.44,0.00,0.00,1.66,35.10,10.26,0.00,9.04,21.82,0.00,36.99,4.34,0.00,0.00,0.00,0.00,15.00,0.00,0.00,3.25,20.19,0.00,13.11,2.19,30.76,12.82,0.00,12.52
1,24.57,8.86,0.00,6.17,12.95,0.00,0.00,1.54,34.83,10.26,0.00,9.08,22.56,0.00,39.73,4.60,0.00,0.00,0.00,0.00,15.17,0.00,0.00,3.28,19.83,0.00,9.84,2.19,30.46,12.82,0.00,11.84
1,23.80,8.86,0.00,6.02,13.81,0.00,0.00,1.80,36.18,10.26,0.00,9.51,23.09,0.00,41.10,4.77,0.00,0.00,0.00,0.00,14.60,0.00,0.00,3.00,19.34,0.00,8.20,2.14,32.29,12.82,0.00,12.72
1,23.08,7.59,0.00,5.69,13.63,0.00,0.00,1.74,37.00,12.82,0.00,9.73,23.95,0.00,43.84,4.94,0.00,0.00,0.00,0.00,14.21,0.00,0.00,2.81,19.23,0.00,8.20,2.07,31.75,12.82,0.00,12.02
1,22.51,6.33,0.00,5.31,14.02,0.00,0.00,1.83,37.12,12.82,0.00,9.97,23.96,0.00,45.21,4.79,0.00,0.00,0.00,0.00,13.97,0.00,0.00,2.74,19.61,0.00,9.84,2.05,32.12,12.82,0.00,12.22
1,22.16,6.33,0.00,5.38,13.69,0.00,0.00,1.81,36.29,10.26,0.00,9.39,22.01,0.00,41.10,4.08,0.00,0.00,0.00,0.00,14.09,0.00,0.00,2.73,18.60,0.00,8.20,1.73,30.51,7.69,0.00,10.48
1,21.96,7.59,0.00,4.86,13.95,0.00,0.00,1.90,36.05,10.26,0.00,9.25,22.40,0.00,43.84,4.22,0.00,0.00,0.00,0.00,13.64,0.00,0.00,2.58,18.65,0.00,8.20,1.76,30.30,7.69,0.00,10.49
1,22.33,7.59,0.00,4.89,14.00,0.00,0.00,1.94,37.01,10.26,0.00,9.53,22.75,0.00,43.84,4.29,0.00,0.00,0.00,0.00,13.07,0.00,0.00,2.41,19.21,0.00,8.20,1.90,31.64,7.69,0.00,11.07
1,23.38,8.86,0.00,5.18,14.07,0.00,0.00,1.96,37.47,10.26,0.00,9.70,22.68,0.00,43.84,4.27,0.00,0.00,0.00,0.00,12.83,0.00,0.00,2.30,18.93,0.00,8.20,1.88,32.12,7.69,0.00,11.38
1,23.65,8.86,0.00,5.24,13.89,0.00,0.00,1.92,37.51,10.26,0.00,9.72,22.15,0.00,41.10,4.18,0.00,0.00,0.00,0.00,12.63,0.00,0.00,2.27,18.80,0.00,8.20,1.91,31.11,7.69,0.00,11.18
1,23.69,7.59,0.00,4.96,13.84,0.00,0.00,1.88,37.78,10.26,0.00,9.81,22.12,0.00,39.73,4.18,0.00,0.00,0.00,0.00,12.67,0.00,0.00,2.25,19.12,0.00,8.20,2.03,31.32,7.69,0.00,11.14
1,23.87,7.59,0.00,5.12,13.18,0.00,0.00,1.79,36.58,2.56,0.00,9.18,21.09,0.00,35.62,3.88,0.00,0.00,0.00,0.00,12.53,0.00,0.00,2.25,18.20,0.00,4.92,1.90,31.47,7.69,0.00,11.15
1,24.30,7.59,0.00,5.14,12.80,0.00,0.00,1.74,35.87,2.56,0.00,8.98,21.03,0.00,36.99,3.85,0.00,0.00,0.00,0.00,12.06,0.00,0.00,2.09,19.39,0.00,6.56,2.04,31.74,7.69,0.00,11.30
1,25.50,10.13,0.00,5.56,12.89,0.00,0.00,1.74,36.53,2.56,0.00,9.25,20.57,0.00,34.25,3.63,0.00,0.00,0.00,0.00,12.29,0.00,0.00,2.10,19.00,0.00,4.92,1.94,32.38,10.26,0.00,11.93
1,26.36,11.39,0.00,5.81,12.82,0.00,0.00,1.70,35.90,2.56,0.00,8.97,20.38,0.00,32.88,3.43,0.00,0.00,0.00,0.00,12.39,0.00,0.00,2.12,18.55,0.00,4.92,1.86,31.51,7.69,0.00,10.73
1,28.06,12.66,0.00,6.39,12.71,0.00,0.00,1.68,35.92,2.56,0.00,9.19,21.28,0.00,38.36,3.74,0.00,0.00,0.00,0.00,12.05,0.00,0.00,2.06,19.86,0.00,8.20,2.14,32.28,10.26,0.00,11.88
1,28.00,11.39,0.00,6.32,12.66,0.00,0.00,1.73,36.46,2.56,0.00,9.23,21.56,0.00,39.73,3.83,0.00,0.00,0.00,0.00,11.81,0.00,0.00,1.98,20.24,0.00,8.20,2.21,33.27,12.82,0.00,12.63
1,28.24,11.39,0.00,6.48,12.50,0.00,0.00,1.68,35.13,2.56,0.00,8.43,20.37,0.00,36.99,3.33,0.00,0.00,0.00,0.00,11.74,0.00,0.00,1.99,19.92,0.00,8.20,2.13,32.64,12.82,0.00,12.15
1,28.74,12.66,0.00,7.07,12.37,0.00,0.00,1.70,36.35,2.56,0.00,8.87,20.80,0.00,38.36,3.40,0.00,0.00,0.00,0.00,11.24,0.00,0.00,1.86,20.19,0.00,8.20,2.15,33.68,15.38,0.00,13.06
1,27.89,12.66,0.00,6.88,12.51,0.00,0.00,1.70,37.21,2.56,0.00,9.04,20.57,0.00,36.99,3.34,0.00,0.00,0.00,0.00,10.89,0.00,0.00,1.78,19.58,0.00,8.20,2.07,32.24,12.82,0.00,12.35
1,28.25,12.66,0.00,7.06,12.24,0.00,0.00,1.65,36.45,2.56,0.00,8.69,21.17,0.00,41.10,3.33,0.00,0.00,0.00,0.00,11.22,0.00,0.00,1.90,19.50,0.00,8.20,2.04,33.21,12.82,0.00,11.85
1,27.11,12.66,0.00,6.66,12.45,0.00,0.00,1.69,36.85,2.56,0.00,8.80,21.19,0.00,39.73,3.35,0.00,0.00,0.00,0.00,10.71,0.00,0.00,1.71,19.55,0.00,8.20,2.04,34.22,12.82,0.00,12.01
1,26.54,11.39,0.00,6.49,12.79,0.00,0.00,1.81,37.00,2.56,0.00,8.70,20.36,0.00,35.62,3.06,0.00,0.00,0.00,0.00,10.17,0.00,0.00,1.56,19.27,0.00,8.20,1.98,34.25,12.82,0.00,12.54
1,26.99,11.39,0.00,6.63,12.22,0.00,0.00,1.62,36.15,2.56,0.00,8.51,20.20,0.00,35.62,3.06,0.00,0.00,0.00,0.00,10.44,0.00,0.00,1.65,20.53,0.00,11.48,2.23,33.78,17.95,0.00,12.74
1,27.31,11.39,0.00,6.72,12.24,0.00,0.00,1.65,37.02,2.56,0.00,9.07,20.13,0.00,34.25,3.27,0.00,0.00,0.00,0.00,10.89,0.00,0.00,1.80,20.47,0.00,11.48,2.20,34.80,17.95,0.00,13.33
1,27.51,11.39,0.00,6.80,11.99,0.00,0.00,1.57,36.33,0.00,0.00,8.52,19.67,0.00,35.62,3.04,0.00,0.00,0.00,0.00,10.80,0.00,0.00,1.80,20.15,0.00,9.84,2.19,34.13,15.38,0.00,12.77
1,27.58,11.39,0.00,6.79,12.41,0.00,0.00,1.68,36.20,0.00,0.00,8.79,19.54,0.00,35.62,3.00,0.00,0.00,0.00,0.00,10.71,0.00,0.00,1.77,20.58,0.00,9.84,2.42,33.83,15.38,0.00,12.68
1,27.28,10.13,0.00,6.75,12.06,0.00,0.00,1.60,35.47,0.00,0.00,8.55,19.19,0.00,34.25,2.91,0.00,0.00,0.00,0.00,10.48,0.00,0.00,1.72,19.97,0.00,9.84,2.34,33.78,15.38,0.00,12.54
1,27.84,12.66,2.00,7.28,12.61,0.00,0.00,1.64,34.84,0.00,0.00,8.53,19.24,0.00,36.99,2.90,0.00,0.00,0.00,0.00,10.45,0.00,0.00,1.71,19.84,0.00,9.84,2.23,33.30,15.38,0.00,12.76
1,27.40,11.39,2.00,7.10,13.15,0.00,0.00,1.72,34.53,0.00,0.00,8.65,19.01,0.00,34.25,2.95,0.00,0.00,0.00,0.00,10.54,0.00,0.00,1.73,20.26,0.00,9.84,2.22,33.00,15.38,0.00,12.43
1,27.58,11.39,2.00,7.17,13.35,0.00,0.00,1.83,34.47,0.00,0.00,8.76,19.45,0.00,35.62,3.08,0.00,0.00,0.00,0.00,10.44,0.00,0.00,1.72,20.17,0.00,9.84,2.31,33.24,15.38,0.00,12.58
1,27.02,11.39,2.00,7.11,13.56,0.00,0.00,1.91,36.68,0.00,0.00,9.74,19.91,0.00,38.36,3.18,0.00,0.00,0.00,0.00,10.51,0.00,0.00,1.74,19.62,0.00,9.84,2.18,35.49,20.51,0.00,14.76
1,27.93,13.92,2.00,7.54,14.07,0.00,0.00,1.99,35.71,0.00,0.00,9.30,19.92,0.00,39.73,3.15,0.00,0.00,0.00,0.00,10.19,0.00,0.00,1.70,20.05,0.00,9.84,2.25,35.34,20.51,0.00,14.87
1,28.48,15.19,2.00,7.78,14.96,0.00,0.00,2.10,35.27,0.00,0.00,9.28,19.75,0.00,38.36,3.15,0.00,0.00,0.00,0.00,10.24,0.00,0.00,1.60,19.16,0.00,8.20,2.16,36.21,20.51,0.00,15.40
1,27.68,12.66,2.00,7.72,14.66,0.00,0.00,2.09,34.19,0.00,0.00,8.49,19.67,0.00,36.99,3.08,0.00,0.00,0.00,0.00,10.29,0.00,0.00,1.66,18.56,0.00,8.20,2.12,34.80,17.95,0.00,14.43
1,27.03,11.39,2.00,7.51,15.11,0.00,0.00,2.15,34.34,0.00,0.00,8.52,19.73,0.00,38.36,3.20,0.00,0.00,0.00,0.00,10.81,0.00,0.00,1.95,19.03,0.00,8.20,2.25,36.02,17.95,0.00,15.00
1,27.14,11.39,2.00,7.39,15.53,0.00,0.00,2.26,33.77,0.00,0.00,8.30,19.01,0.00,34.25,3.05,0.00,0.00,0.00,0.00,10.86,0.00,0.00,1.95,18.54,0.00,4.92,2.13,34.21,15.38,0.00,13.55
1,26.22,11.39,2.00,6.90,15.45,0.00,0.00,2.20,34.46,0.00,0.00,8.53,18.95,0.00,32.88,2.98,0.00,0.00,0.00,0.00,11.21,0.00,0.00,1.99,18.36,0.00,4.92,2.00,34.04,15.38,0.00,13.68
1,26.58,11.39,2.00,6.86,15.90,0.00,0.00,2.23,34.20,0.00,0.00,8.32,19.22,0.00,35.62,3.00,0.00,0.00,0.00,0.00,10.92,0.00,0.00,1.90,18.41,0.00,4.92,2.00,32.93,12.82,0.00,12.65
1,25.25,10.13,2.00,5.99,15.71,0.00,0.00,2.20,33.60,0.00,0.00,8.07,18.71,0.00,32.88,2.94,0.00,0.00,0.00,0.00,11.01,0.00,0.00,1.91,18.29,0.00,4.92,2.02,31.78,10.26,0.00,12.01
1,24.95,10.13,2.00,5.85,15.86,0.00,0.00,2.21,33.59,0.00,0.00,8.08,19.15,0.00,35.62,3.05,0.00,0.00,0.00,0.00,11.07,0.00,0.00,1.93,19.01,0.00,4.92,2.12,31.32,10.26,0.00,11.46
1,25.21,8.86,2.00,5.78,16.32,0.00,0.00,2.28,34.00,0.00,0.00,8.35,19.57,0.00,35.62,3.46,0.00,0.00,0.00,0.00,10.88,0.00,0.00,1.82,19.20,0.00,4.92,2.17,32.34,12.82,0.00,12.42
1,25.51,8.86,2.00,5.71,16.40,0.00,0.00,2.34,33.52,0.00,0.00,8.19,19.88,0.00,35.62,3.52,0.00,0.00,0.00,0.00,11.82,1.41,0.00,2.17,19.37,0.00,4.92,2.17,31.93,12.82,0.00,12.26
1,25.67,8.86,2.00,5.80,16.09,0.00,0.00,2.27,33.39,0.00,0.00,8.40,20.20,0.00,36.99,3.59,0.00,0.00,0.00,0.00,11.65,1.41,0.00,2.21,19.75,0.00,4.92,2.28,31.16,12.82,0.00,11.99
1,25.42,8.86,2.00,5.71,15.89,0.00,0.00,2.21,34.98,0.00,0.00,9.01,20.66,0.00,38.36,3.78,0.00,0.00,0.00,0.00,11.58,1.41,0.00,2.19,19.75,0.00,3.28,2.26,31.96,15.38,0.00,12.21
1,25.08,8.86,2.00,5.57,16.16,0.00,0.00,2.25,33.82,0.00,0.00,8.54,21.27,0.00,41.10,3.95,0.00,0.00,0.00,0.00,10.97,1.41,0.00,2.00,19.47,0.00,3.28,2.19,31.35,12.82,0.00,12.36
1,24.87,8.86,2.00,5.53,15.75,0.00,0.00,2.16,34.83,0.00,0.00,9.04,21.85,0.00,41.10,4.03,0.00,0.00,0.00,0.00,11.31,1.41,0.00,2.09,19.81,0.00,4.92,2.24,31.64,12.82,0.00,12.51
1,25.93,12.66,2.00,6.01,15.27,0.00,0.00,2.06,34.72,0.00,0.00,9.02,21.88,0.00,41.10,4.11,0.00,0.00,0.00,0.00,11.40,1.41,0.00,2.11,19.03,0.00,3.28,1.97,31.17,12.82,0.00,12.17
1,25.80,12.66,2.00,5.96,15.84,0.00,0.00,2.23,36.30,2.56,0.00,9.22,22.48,0.00,42.47,4.30,0.00,0.00,0.00,0.00,11.29,1.41,0.00,2.12,19.89,0.00,4.92,2.12,32.81,15.38,0.00,13.31
1,25.13,10.13,0.00,5.43,15.40,0.00,0.00,2.23,37.46,5.13,0.00,10.36,23.51,0.00,45.21,4.56,0.00,0.00,0.00,0.00,11.43,1.41,0.00,2.13,19.79,0.00,4.92,2.09,32.99,15.38,0.00,13.40
1,24.86,10.13,0.00,5.26,15.11,0.00,0.00,2.14,38.82,7.69,0.00,10.95,24.11,0.00,47.95,4.69,0.00,0.00,0.00,0.00,11.54,1.41,0.00,2.13,20.38,0.00,4.92,2.17,34.73,17.95,0.00,14.28
1,25.08,10.13,0.00,5.40,14.74,0.00,0.00,2.00,38.98,7.69,0.00,10.95,24.06,0.00,47.95,4.67,0.00,0.00,0.00,0.00,11.62,1.41,0.00,2.13,20.09,0.00,4.92,2.09,36.24,20.51,0.00,15.36
1,25.34,10.13,0.00,5.48,14.54,0.00,0.00,1.93,38.30,7.69,0.00,10.31,24.03,0.00,49.32,4.65,0.00,0.00,0.00,0.00,11.73,1.41,0.00,2.14,20.66,0.00,4.92,2.11,34.66,15.38,0.00,13.73
1,24.25,7.59,0.00,4.99,14.73,0.00,0.00,1.99,38.41,7.69,0.00,10.11,23.88,0.00,47.95,4.59,0.00,0.00,0.00,0.00,12.01,1.41,0.00,2.27,20.63,0.00,4.92,2.07,33.80,15.38,0.00,13.02
1,24.25,7.59,0.00,5.12,14.35,0.00,0.00,1.91,38.44,7.69,0.00,10.15,23.48,0.00,46.58,4.52,0.00,0.00,0.00,0.00,12.03,1.41,0.00,2.33,20.44,0.00,4.92,2.03,32.68,15.38,0.00,12.43
1,23.85,7.59,0.00,4.60,14.41,0.00,0.00,1.93,38.90,7.69,0.00,10.54,23.95,0.00,47.95,4.72,0.00,0.00,0.00,0.00,12.51,2.82,0.00,2.58,20.55,0.00,4.92,2.03,32.89,15.38,0.00,12.56
1,23.33,7.59,0.00,4.54,14.57,0.00,0.00,1.99,38.42,7.69,0.00,10.43,23.74,0.00,46.58,4.66,0.00,0.00,0.00,0.00,12.04,2.82,0.00,2.41,20.23,0.00,4.92,1.93,31.17,15.38,0.00,11.58
1,22.52,6.33,0.00,4.40,14.23,0.00,0.00,1.91,39.32,7.69,0.00,10.67,24.01,0.00,46.58,4.61,0.00,0.00,0.00,0.00,12.26,2.82,0.00,2.41,19.89,0.00,4.92,1.91,31.00,15.38,0.00,11.49
1,22.21,6.33,0.00,4.24,14.41,0.00,0.00,1.92,37.47,7.69,0.00,10.27,24.03,0.00,47.95,4.63,0.00,0.00,0.00,0.00,11.94,2.82,0.00,2.37,19.66,0.00,4.92,1.86,31.22,15.38,0.00,11.49
1,22.47,6.33,0.00,4.33,14.69,0.00,0.00,2.03,37.91,7.69,0.00,10.19,23.81,0.00,43.84,4.60,0.00,0.00,0.00,0.00,12.20,2.82,0.00,2.41,19.91,0.00,4.92,1.98,31.73,15.38,0.00,11.70
1,22.88,6.33,0.00,4.50,14.95,0.00,0.00,2.05,39.06,7.69,0.00,11.03,24.75,0.00,46.58,4.95,0.00,0.00,0.00,0.00,12.11,2.82,0.00,2.38,20.65,0.00,6.56,2.09,32.02,15.38,0.00,12.01
1,22.88,6.33,0.00,4.45,14.78,0.00,0.00,2.04,38.91,7.69,0.00,10.99,24.15,0.00,43.84,4.77,0.00,0.00,0.00,0.00,12.08,2.82,0.00,2.38,20.58,0.00,6.56,2.05,33.03,15.38,0.00,12.63
1,22.42,6.33,0.00,4.38,14.72,0.00,0.00,2.06,38.68,7.69,0.00,11.45,23.62,0.00,42.47,4.40,0.00,0.00,0.00,0.00,12.76,2.82,0.00,2.54,20.39,0.00,6.56,1.98,32.09,12.82,0.00,12.06
1,21.98,6.33,0.00,4.29,14.79,0.00,0.00,2.00,39.18,7.69,0.00,11.59,23.28,0.00,41.10,4.36,0.00,0.00,0.00,0.00,12.33,1.41,0.00,2.38,20.31,0.00,6.56,1.99,32.39,12.82,0.00,12.18
1,21.28,6.33,0.00,4.18,14.52,0.00,0.00,1.94,38.88,7.69,0.00,11.67,22.96,0.00,39.73,4.31,0.00,0.00,0.00,0.00,12.56,1.41,0.00,2.29,20.53,0.00,8.20,2.00,32.04,12.82,0.00,11.94
1,22.20,6.33,0.00,4.40,14.53,0.00,0.00,1.94,38.19,7.69,0.00,11.13,22.27,0.00,36.99,4.05,0.00,0.00,0.00,0.00,12.76,1.41,0.00,2.30,19.93,0.00,8.20,1.91,31.99,10.26,0.00,11.93
1,22.81,7.59,0.00,4.55,14.90,0.00,0.00,2.03,36.90,7.69,0.00,10.74,21.76,0.00,35.62,3.83,0.00,0.00,0.00,0.00,12.85,1.41,0.00,2.37,19.68,0.00,6.56,1.87,30.70,7.69,0.00,10.47
1,22.91,7.59,0.00,4.58,15.14,0.00,0.00,2.08,36.70,7.69,0.00,10.74,21.05,0.00,34.25,3.63,0.00,0.00,0.00,0.00,12.55,1.41,0.00,2.30,19.47,0.00,4.92,1.84,30.45,7.69,0.00,10.29
1,21.93,3.80,0.00,4.09,15.48,0.00,0.00,2.13,35.68,7.69,0.00,10.27,20.68,0.00,32.88,3.49,0.00,0.00,0.00,0.00,12.35,1.41,0.00,2.20,20.09,0.00,6.56,1.90,30.18,7.69,0.00,10.19
1,21.60,2.53,0.00,3.98,15.34,0.00,0.00,2.21,35.20,7.69,0.00,10.02,20.51,0.00,31.51,3.37,0.00,0.00,0.00,0.00,12.46,1.41,0.00,2.19,19.04,0.00,4.92,1.70,28.96,5.13,0.00,9.04
1,21.64,3.80,0.00,4.09,15.08,0.00,0.00,2.06,35.16,2.56,0.00,9.73,19.56,0.00,27.40,3.27,0.00,0.00,0.00,0.00,12.70,1.41,0.00,2.23,18.62,0.00,4.92,1.67,29.45,5.13,0.00,9.38
1,21.55,3.80,0.00,4.16,14.64,0.00,0.00,2.02,33.66,0.00,0.00,8.70,18.72,0.00,24.66,2.95,0.00,0.00,0.00,0.00,12.57,1.41,0.00,2.21,18.64,0.00,4.92,1.65,28.44,2.56,0.00,8.84
1,21.59,3.80,0.00,4.09,14.76,0.00,0.00,2.02,33.73,0.00,0.00,8.67,18.73,0.00,26.03,2.92,0.00,0.00,0.00,0.00,12.66,1.41,0.00,2.23,18.45,0.00,6.56,1.59,26.99,0.00,0.00,7.53
1,21.26,3.80,0.00,3.96,14.52,0.00,0.00,1.98,34.38,0.00,0.00,8.82,19.97,0.00,30.14,3.14,0.00,0.00,0.00,0.00,12.80,1.41,0.00,2.28,18.59,0.00,6.56,1.65,27.83,0.00,0.00,7.63
1,22.95,6.33,0.00,4.46,14.29,0.00,0.00,1.91,34.19,0.00,0.00,8.86,20.37,0.00,32.88,3.36,0.00,0.00,0.00,0.00,12.66,1.41,0.00,2.22,18.91,0.00,6.56,1.74,28.26,0.00,0.00,8.19
1,22.27,6.33,0.00,4.25,14.55,0.00,0.00,1.96,34.56,0.00,0.00,9.09,20.30,0.00,32.88,3.42,0.00,0.00,0.00,0.00,12.45,1.41,0.00,2.08,19.91,0.00,9.84,1.92,29.79,0.00,0.00,8.83
1,21.28,5.06,0.00,4.01,14.24,0.00,0.00,1.90,36.48,5.13,0.00,10.06,20.04,0.00,32.88,3.29,0.00,0.00,0.00,0.00,11.81,0.00,0.00,1.97,19.93,0.00,9.84,1.93,31.20,5.13,0.00,9.83
1,22.24,5.06,0.00,4.20,14.04,0.00,0.00,1.81,36.98,5.13,0.00,10.03,20.37,0.00,34.25,3.28,0.00,0.00,0.00,0.00,11.55,0.00,0.00,1.66,20.21,0.00,9.84,1.93,32.20,5.13,0.00,10.77
1,22.62,5.06,0.00,4.21,14.06,0.00,0.00,1.78,37.37,5.13,0.00,10.35,20.40,0.00,32.88,3.34,0.00,0.00,0.00,0.00,11.87,0.00,0.00,1.77,20.18,0.00,9.84,1.94,33.32,5.13,0.00,11.30
1,22.97,5.06,0.00,4.35,14.05,0.00,0.00,1.79,39.10,5.13,0.00,10.92,20.58,0.00,32.88,3.36,0.00,0.00,0.00,0.00,11.91,0.00,0.00,1.78,20.77,0.00,11.48,2.03,32.62,5.13,0.00,11.13
1,23.04,6.33,0.00,4.44,13.84,0.00,0.00,1.72,40.09,5.13,0.00,11.32,21.45,0.00,36.99,3.68,0.00,0.00,0.00,0.00,11.92,0.00,0.00,1.77,20.83,0.00,13.11,2.01,33.92,5.13,0.00,11.79
1,22.99,6.33,0.00,4.39,13.86,0.00,0.00,1.75,39.36,5.13,0.00,10.67,20.31,0.00,32.88,3.37,0.00,0.00,0.00,0.00,12.14,0.00,0.00,1.81,20.38,0.00,11.48,1.99,33.42,5.13,0.00,11.55
1,24.26,7.59,0.00,4.76,13.79,0.00,0.00,1.68,38.72,5.13,0.00,10.56,20.86,0.00,35.62,3.52,0.00,0.00,0.00,0.00,12.31,0.00,0.00,1.87,20.41,0.00,11.48,2.00,33.17,5.13,0.00,11.53
1,24.10,7.59,0.00,4.83,13.34,0.00,0.00,1.62,38.07,5.13,0.00,9.83,20.59,0.00,34.25,3.45,0.00,0.00,0.00,0.00,12.17,0.00,0.00,1.82,20.59,0.00,11.48,2.06,31.88,5.13,0.00,10.60
1,24.48,7.59,0.00,5.10,13.44,0.00,0.00,1.64,37.65,5.13,0.00,9.39,20.57,0.00,35.62,3.43,0.00,0.00,0.00,0.00,11.87,0.00,0.00,1.75,20.38,0.00,11.48,2.08,32.89,5.13,0.00,11.49
1,24.68,7.59,0.00,5.22,13.30,0.00,0.00,1.59,37.20,5.13,0.00,9.36,20.73,0.00,36.99,3.51,0.00,0.00,0.00,0.00,11.28,0.00,0.00,1.62,20.14,0.00,11.48,2.05,32.03,5.13,0.00,11.16
1,25.15,8.86,0.00,5.55,13.45,0.00,0.00,1.60,36.67,5.13,0.00,9.36,20.71,0.00,36.99,3.50,0.00,0.00,0.00,0.00,11.62,0.00,0.00,1.70,20.66,0.00,11.48,2.05,32.22,5.13,0.00,11.31
1,25.62,8.86,0.00,5.76,13.12,0.00,0.00,1.54,37.78,5.13,0.00,9.55,20.39,0.00,34.25,3.60,0.00,0.00,0.00,0.00,11.48,0.00,0.00,1.64,21.00,0.00,11.48,2.05,32.43,5.13,0.00,11.48
1,25.13,7.59,0.00,5.59,12.75,0.00,0.00,1.45,37.46,5.13,0.00,9.42,20.48,0.00,34.25,3.66,0.00,0.00,0.00,0.00,11.40,0.00,0.00,1.64,20.47,0.00,11.48,2.03,31.86,5.13,0.00,11.46
1,26.62,11.39,0.00,6.10,12.67,0.00,0.00,1.40,37.87,5.13,0.00,9.63,21.33,0.00,38.36,3.84,0.00,0.00,0.00,0.00,11.85,0.00,0.00,1.76,20.26,0.00,9.84,2.01,31.24,5.13,0.00,11.03
1,26.48,11.39,0.00,6.18,12.49,0.00,0.00,1.33,37.67,5.13,0.00,9.52,21.35,0.00,36.99,3.81,0.00,0.00,0.00,0.00,11.90,0.00,0.00,1.80,21.38,0.00,9.84,2.14,31.05,5.13,0.00,11.00
1,26.80,11.39,0.00,6.24,12.65,0.00,0.00,1.37,36.45,5.13,0.00,9.34,21.41,0.00,36.99,3.78,0.00,0.00,0.00,0.00,11.71,0.00,0.00,1.76,21.51,0.00,9.84,2.18,30.63,5.13,0.00,10.94
1,26.59,11.39,0.00,6.15,12.86,0.00,0.00,1.41,35.80,5.13,0.00,8.88,21.67,0.00,39.73,3.79,0.00,0.00,0.00,0.00,11.44,0.00,0.00,1.70,22.40,0.00,13.11,2.37,31.01,5.13,0.00,11.02
1,26.58,11.39,0.00,6.16,12.77,0.00,0.00,1.40,35.30,5.13,0.00,8.71,21.54,0.00,38.36,3.89,0.00,0.00,0.00,0.00,11.39,0.00,0.00,1.71,22.21,0.00,11.48,2.33,31.46,5.13,0.00,11.21
1,26.56,11.39,0.00,6.34,13.16,0.00,0.00,1.46,35.60,5.13,0.00,8.80,20.41,0.00,32.88,3.69,0.00,0.00,0.00,0.00,11.41,0.00,0.00,1.67,22.13,0.00,11.48,2.33,31.95,7.69,0.00,12.00
1,25.67,8.86,0.00,6.00,12.73,0.00,0.00,1.39,34.66,5.13,0.00,8.59,19.43,0.00,27.40,3.54,0.00,0.00,0.00,0.00,11.17,0.00,0.00,1.64,21.91,0.00,11.48,2.31,31.03,7.69,0.00,11.71
1,25.88,8.86,0.00,5.96,12.66,0.00,0.00,1.39,35.04,10.26,0.00,8.96,20.75,0.00,30.14,4.04,0.00,0.00,0.00,0.00,11.42,0.00,0.00,1.75,21.95,0.00,9.84,2.46,32.01,12.82,0.00,13.35
1,26.37,8.86,0.00,6.03,12.90,0.00,0.00,1.45,34.69,10.26,0.00,8.91,21.55,0.00,34.25,4.17,0.00,0.00,0.00,0.00,11.35,0.00,0.00,1.70,22.46,0.00,9.84,2.60,31.73,12.82,0.00,13.33
1,26.76,10.13,0.00,6.10,13.06,0.00,0.00,1.50,32.75,5.13,0.00,7.77,20.85,0.00,31.51,3.97,0.00,0.00,0.00,0.00,11.54,0.00,0.00,1.73,22.20,0.00,9.84,2.59,29.00,7.69,0.00,11.18
1,27.60,12.66,0.00,6.62,12.81,0.00,0.00,1.48,32.43,5.13,0.00,7.74,21.19,0.00,34.25,4.11,0.00,0.00,0.00,0.00,11.64,0.00,0.00,1.77,22.56,0.00,9.84,2.62,28.65,7.69,0.00,11.17
1,28.26,15.19,0.00,6.91,13.04,0.00,0.00,1.53,31.78,5.13,0.00,7.17,21.36,0.00,35.62,4.13,0.00,0.00,0.00,0.00,11.83,0.00,0.00,1.88,22.94,0.00,9.84,2.67,29.59,10.26,0.00,12.39
1,27.83,15.19,0.00,6.84,12.80,0.00,0.00,1.50,30.80,7.69,0.00,7.61,20.78,0.00,31.51,4.14,0.00,0.00,0.00,0.00,11.84,0.00,0.00,1.95,22.51,0.00,8.20,2.68,28.70,10.26,0.00,12.36
1,27.93,15.19,0.00,6.81,12.82,0.00,0.00,1.54,29.75,7.69,0.00,7.22,20.56,0.00,31.51,3.99,0.00,0.00,0.00,0.00,11.59,0.00,0.00,1.91,21.94,0.00,8.20,2.57,27.17,10.26,0.00,11.60
1,29.53,16.46,0.00,8.06,13.01,0.00,0.00,1.58,29.25,7.69,0.00,7.07,20.45,0.00,28.77,3.91,0.00,0.00,0.00,0.00,12.32,1.41,0.00,2.22,22.35,0.00,8.20,2.54,26.56,10.26,0.00,11.50
1,33.98,21.52,6.00,13.64,14.75,2.22,2.33,2.86,30.43,10.26,0.00,7.81,22.56,0.00,32.88,4.86,0.00,0.00,0.00,0.00,13.82,4.23,0.00,4.66,23.16,0.00,9.84,2.58,26.13,10.26,0.00,11.40
0,35.93,24.05,6.00,14.73,18.47,4.44,6.98,5.78,32.97,15.38,0.00,9.83,24.75,2.44,35.62,6.23,0.00,0.00,0.00,0.00,17.55,8.45,3.92,10.68,24.25,0.00,13.11,3.03,24.96,10.26,0.00,10.59
0,38.92,26.58,8.00,18.58,19.10,4.44,6.98,6.59,32.98,15.38,0.00,9.71,24.62,2.44,34.25,6.25,0.00,0.00,0.00,0.00,17.97,8.45,3.92,11.25,24.21,0.00,11.48,3.05,24.34,10.26,0.00,10.27
0,37.61,25.32,8.00,17.94,19.29,4.44,6.98,6.78,33.40,15.38,0.00,9.69,24.40,2.44,32.88,6.18,0.00,0.00,0.00,0.00,18.55,9.86,3.92,11.61,23.95,0.00,11.48,3.08,23.09,10.26,0.00,9.98
0,40.36,29.11,12.00,20.06,19.54,4.44,6.98,6.88,32.29,15.38,0.00,9.28,24.16,2.44,32.88,6.03,0.00,0.00,0.00,0.00,18.50,9.86,3.92,11.63,23.70,0.00,11.48,3.05,22.11,10.26,0.00,9.71
0,43.41,32.91,16.00,22.97,20.80,4.44,6.98,7.44,32.21,15.38,0.00,9.09,23.79,2.44,31.51,5.83,0.00,0.00,0.00,0.00,20.25,11.27,3.92,12.75,23.55,0.00,11.48,2.98,20.95,10.26,0.00,9.36
0,45.98,36.71,20.00,24.87,21.29,4.44,6.98,7.53,31.70,15.38,0.00,8.84,22.85,2.44,28.77,5.67,0.00,0.00,0.00,0.00,20.56,11.27,3.92,12.95,23.33,0.00,11.48,2.95,20.45,10.26,0.00,9.14
0,46.68,37.97,22.00,25.33,21.22,4.44,6.98,7.50,31.98,15.38,0.00,8.90,23.31,2.44,31.51,5.75,0.00,0.00,0.00,0.00,20.37,11.27,3.92,12.91,23.00,0.00,11.48,2.91,19.95,10.26,0.00,9.07
0,50.06,44.30,28.00,27.71,20.86,4.44,6.98,7.40,31.59,15.38,0.00,8.84,22.76,2.44,30.14,5.70,0.00,0.00,0.00,0.00,21.64,14.08,3.92,13.56,22.59,0.00,11.48,2.82,18.37,10.26,0.00,8.57
0,51.14,45.57,30.00,28.63,21.79,4.44,6.98,7.70,31.28,15.38,0.00,8.66,22.38,2.44,27.40,5.67,0.00,0.00,0.00,0.00,22.76,14.08,3.92,14.10,21.70,0.00,8.20,2.66,16.89,10.26,0.00,8.04
0,52.04,48.10,30.00,29.64,21.68,4.44,6.98,7.68,31.41,15.38,0.00,8.72,21.90,2.44,26.03,5.51,0.00,0.00,0.00,0.00,23.22,14.08,3.92,14.28,21.54,0.00,8.20,2.61,15.54,10.26,0.00,7.61
0,55.49,53.16,34.00,31.02,21.66,4.44,6.98,7.63,31.00,15.38,0.00,8.73,21.99,2.44,28.77,5.50,0.00,0.00,0.00,0.00,24.31,14.08,3.92,14.62,22.06,0.00,8.20,2.67,13.50,7.69,0.00,6.67
0,59.24,58.23,38.00,33.79,22.21,4.44,6.98,7.76,30.71,15.38,0.00,8.67,22.12,2.44,30.14,5.45,0.00,0.00,0.00,0.00,24.59,14.08,3.92,14.72,21.61,0.00,8.20,2.57,12.34,7.69,0.00,5.98
0,59.54,60.76,40.00,34.19,21.97,4.44,6.98,7.76,29.21,10.26,0.00,7.83,20.66,2.44,27.40,4.81,0.00,0.00,0.00,0.00,24.89,14.08,3.92,14.87,20.23,0.00,6.56,2.26,9.43,2.56,0.00,3.32
0,60.58,63.29,40.00,34.67,22.04,4.44,6.98,7.78,29.01,10.26,0.00,7.67,19.90,2.44,23.29,4.58,0.00,0.00,0.00,0.00,24.98,14.08,3.92,14.86,20.07,0.00,6.56,2.12,8.33,2.56,0.00,2.86
0,64.10,67.09,44.00,38.32,22.56,4.44,6.98,7.87,29.37,10.26,0.00,7.64,19.94,2.44,23.29,4.57,0.00,0.00,0.00,0.00,25.66,14.08,3.92,15.14,20.32,0.00,6.56,2.12,8.10,2.56,0.00,2.82
0,63.79,65.82,44.00,38.58,22.43,4.44,6.98,7.86,28.67,10.26,0.00,7.28,19.02,2.44,20.55,4.33,0.00,0.00,0.00,0.00,25.64,14.08,3.92,15.23,20.29,0.00,6.56,2.10,7.11,2.56,0.00,2.46
0,64.23,65.82,44.00,38.31,22.16,4.44,6.98,7.82,27.47,10.26,0.00,7.11,18.45,2.44,16.44,4.27,0.00,0.00,0.00,0.00,25.62,14.08,3.92,15.15,19.61,0.00,4.92,2.04,6.12,2.56,0.00,2.30
0,66.06,68.35,46.00,39.82,22.07,4.44,6.98,7.82,26.49,7.69,0.00,6.28,18.09,2.44,17.81,4.05,0.00,0.00,0.00,0.00,25.89,14.08,3.92,15.21,19.47,0.00,4.92,1.95,3.75,0.00,0.00,0.19
0,66.27,68.35,46.00,40.23,22.09,4.44,6.98,7.77,26.71,7.69,0.00,6.34,17.94,2.44,17.81,4.00,0.00,0.00,0.00,0.00,26.35,14.08,3.92,15.30,19.93,0.00,4.92,2.00,3.67,0.00,0.00,0.17
0,65.37,67.09,46.00,40.02,21.87,4.44,6.98,7.72,26.66,7.69,0.00,6.36,18.03,2.44,20.55,4.03,0.00,0.00,0.00,0.00,26.06,14.08,3.92,15.40,19.72,0.00,4.92,1.99,3.67,0.00,0.00,0.17
0,62.06,64.56,42.00,35.66,20.04,2.22,4.65,6.75,26.46,7.69,0.00,6.28,16.60,2.44,20.55,3.41,0.00,0.00,0.00,0.00,24.47,9.86,3.92,13.25,19.54,0.00,4.92,2.00,3.46,0.00,0.00,0.16
0,61.29,64.56,42.00,34.53,17.25,0.00,0.00,5.19,22.75,0.00,0.00,3.79,13.94,0.00,15.07,2.02,0.00,0.00,0.00,0.00,21.40,7.04,0.00,9.21,17.61,0.00,1.64,1.47,3.11,0.00,0.00,0.12
0,58.18,62.03,40.00,30.06,15.38,0.00,0.00,2.66,22.33,0.00,0.00,3.48,13.61,0.00,16.44,1.61,0.00,0.00,0.00,0.00,20.59,5.63,0.00,6.39,17.65,0.00,1.64,1.45,2.98,0.00,0.00,0.10
0,61.02,67.09,44.00,31.40,15.22,0.00,0.00,2.59,22.09,0.00,0.00,3.49,13.42,0.00,16.44,1.60,0.00,0.00,0.00,0.00,19.87,4.23,0.00,6.05,17.30,0.00,1.64,1.36,3.12,0.00,0.00,0.11
0,59.43,64.56,40.00,30.25,14.87,0.00,0.00,2.42,22.19,0.00,0.00,3.73,13.80,0.00,17.81,1.72,0.00,0.00,0.00,0.00,20.16,4.23,0.00,5.93,16.61,0.00,1.64,1.29,3.22,0.00,0.00,0.11
0,55.91,59.49,36.00,26.67,13.64,0.00,0.00,1.86,23.19,0.00,0.00,3.97,13.85,0.00,19.18,1.75,0.00,0.00,0.00,0.00,18.89,2.82,0.00,4.92,17.17,0.00,1.64,1.41,3.27,0.00,0.00,0.11
0,53.20,55.70,32.00,25.38,13.52,0.00,0.00,1.85,22.14,0.00,0.00,3.81,13.65,0.00,17.81,1.71,0.00,0.00,0.00,0.00,18.61,2.82,0.00,4.82,16.99,0.00,1.64,1.42,3.18,0.00,0.00,0.11
0,51.72,51.90,30.00,23.72,13.56,0.00,0.00,1.91,22.11,0.00,0.00,3.74,12.99,0.00,15.07,1.56,0.00,0.00,0.00,0.00,18.48,2.82,0.00,4.69,17.40,0.00,4.92,1.51,3.22,0.00,0.00,0.11
0,49.26,46.84,24.00,21.84,14.17,0.00,0.00,2.04,22.71,0.00,0.00,3.89,13.55,0.00,16.44,1.69,0.00,0.00,0.00,0.00,17.39,0.00,0.00,4.11,17.45,0.00,4.92,1.50,3.21,0.00,0.00,0.11
0,50.23,48.10,26.00,22.64,13.61,0.00,0.00,1.83,22.37,0.00,0.00,3.84,13.42,0.00,16.44,1.62,0.00,0.00,0.00,0.00,17.01,0.00,0.00,3.85,17.31,0.00,4.92,1.46,3.11,0.00,0.00,0.11
0,47.78,43.04,24.00,20.83,14.04,0.00,0.00,1.92,22.53,0.00,0.00,3.93,13.45,0.00,16.44,1.65,0.00,0.00,0.00,0.00,16.54,0.00,0.00,3.69,17.04,0.00,4.92,1.44,3.15,0.00,0.00,0.11
0,45.88,41.77,20.00,20.03,14.10,0.00,0.00,1.92,21.64,0.00,0.00,3.76,13.54,0.00,15.07,1.74,0.00,0.00,0.00,0.00,15.30,0.00,0.00,3.36,17.23,0.00,6.56,1.51,3.19,0.00,0.00,0.11
0,43.59,37.97,20.00,19.38,13.40,0.00,0.00,1.80,21.83,0.00,0.00,3.85,13.75,0.00,15.07,1.83,0.00,0.00,0.00,0.00,15.03,0.00,0.00,3.32,16.90,0.00,6.56,1.51,3.39,0.00,0.00,0.12
0,42.39,36.71,16.00,17.13,13.45,0.00,0.00,1.80,21.60,0.00,0.00,3.75,13.81,0.00,16.44,1.84,0.00,0.00,0.00,0.00,14.77,0.00,0.00,3.11,17.05,0.00,6.56,1.53,3.41,0.00,0.00,0.12
0,41.70,34.18,16.00,16.90,13.76,0.00,0.00,1.91,21.31,0.00,0.00,3.68,13.81,0.00,16.44,1.84,0.00,0.00,0.00,0.00,14.78,0.00,0.00,3.11,18.00,0.00,8.20,1.65,3.41,0.00,0.00,0.13
0,39.56,31.65,14.00,14.50,12.86,0.00,0.00,1.70,21.21,0.00,0.00,3.71,13.56,0.00,16.44,1.83,0.00,0.00,0.00,0.00,14.67,0.00,0.00,3.02,17.65,0.00,8.20,1.59,3.40,0.00,0.00,0.13
0,36.74,27.85,12.00,12.62,13.33,0.00,0.00,1.85,21.35,0.00,0.00,3.78,13.76,0.00,16.44,1.87,0.00,0.00,0.00,0.00,13.58,0.00,0.00,2.60,17.20,0.00,8.20,1.57,3.39,0.00,0.00,0.13
0,36.62,26.58,12.00,12.54,13.50,0.00,0.00,1.85,21.91,0.00,0.00,3.82,13.70,0.00,16.44,1.84,0.00,0.00,0.00,0.00,13.84,0.00,0.00,2.72,17.74,0.00,8.20,1.61,3.43,0.00,0.00,0.14
0,36.33,26.58,10.00,12.29,14.36,0.00,0.00,2.01,22.21,0.00,0.00,3.82,13.76,0.00,17.81,1.87,0.00,0.00,0.00,0.00,13.64,0.00,0.00,2.74,17.56,0.00,8.20,1.57,3.36,0.00,0.00,0.13
0,35.87,25.32,10.00,11.58,15.80,0.00,0.00,2.97,22.79,0.00,0.00,4.01,13.91,0.00,19.18,1.89,0.00,0.00,0.00,0.00,13.87,0.00,0.00,2.88,18.22,0.00,9.84,1.72,3.42,0.00,0.00,0.13
