0,29.45,18.99,2.00,8.54,18.95,0.00,0.00,3.74,27.51,0.00,0.00,8.60,15.79,0.00,15.07,3.11,0.00,0.00,0.00,0.00,16.81,1.41,0.00,3.97,17.71,0.00,4.92,1.68,3.38,0.00,0.00,0.13
0,31.53,24.05,6.00,9.77,18.70,0.00,0.00,3.70,27.66,0.00,0.00,8.56,16.18,0.00,16.44,3.19,0.00,0.00,0.00,0.00,17.36,1.41,0.00,4.12,17.46,0.00,4.92,1.64,3.23,0.00,0.00,0.12
0,31.66,26.58,6.00,9.87,18.42,0.00,0.00,3.58,27.39,2.56,0.00,9.08,15.98,0.00,17.81,3.20,0.00,0.00,0.00,0.00,17.89,1.41,0.00,4.47,16.41,0.00,4.92,1.51,3.28,0.00,0.00,0.12
0,31.71,26.58,6.00,9.97,18.63,0.00,0.00,3.69,27.67,2.56,0.00,9.23,16.50,0.00,20.55,3.26,0.00,0.00,0.00,0.00,17.92,1.41,0.00,4.52,16.96,0.00,4.92,1.65,3.38,0.00,0.00,0.12
0,30.29,24.05,6.00,9.54,18.38,0.00,0.00,3.61,27.34,2.56,0.00,9.16,16.35,0.00,20.55,3.17,0.00,0.00,0.00,0.00,17.38,1.41,0.00,4.39,16.29,0.00,3.28,1.53,3.40,0.00,0.00,0.13
0,31.41,25.32,6.00,10.09,18.73,0.00,0.00,3.74,26.35,2.56,0.00,8.61,16.20,0.00,21.92,3.14,0.00,0.00,0.00,0.00,17.92,2.82,0.00,4.69,16.58,0.00,3.28,1.58,3.28,0.00,0.00,0.12
0,31.42,25.32,6.00,10.15,18.61,0.00,0.00,3.74,26.84,2.56,0.00,8.67,16.44,0.00,21.92,3.18,0.00,0.00,0.00,0.00,18.19,2.82,0.00,4.94,17.68,0.00,4.92,1.74,3.27,0.00,0.00,0.12
0,32.41,26.58,6.00,10.30,18.67,0.00,0.00,3.87,27.03,2.56,0.00,8.47,16.52,0.00,21.92,3.27,0.00,0.00,0.00,0.00,18.45,2.82,0.00,5.00,18.06,0.00,6.56,1.84,3.34,0.00,0.00,0.13
0,33.33,27.85,6.00,11.00,18.28,0.00,0.00,3.77,27.11,2.56,0.00,8.24,16.54,0.00,23.29,3.28,0.00,0.00,0.00,0.00,18.53,2.82,0.00,5.06,17.04,0.00,6.56,1.71,3.35,0.00,0.00,0.13
0,33.15,26.58,6.00,11.00,18.67,0.00,0.00,3.87,29.36,5.13,0.00,9.40,16.46,0.00,23.29,3.22,0.00,0.00,0.00,0.00,18.28,2.82,0.00,5.07,16.97,0.00,4.92,1.74,3.41,0.00,0.00,0.13
0,32.23,25.32,6.00,10.51,18.37,0.00,0.00,3.87,27.84,5.13,0.00,8.54,15.93,0.00,21.92,3.01,0.00,0.00,0.00,0.00,18.59,2.82,0.00,5.20,17.21,0.00,4.92,1.74,3.41,0.00,0.00,0.13
0,30.06,22.78,4.00,8.67,18.03,0.00,0.00,3.71,27.56,5.13,0.00,8.19,15.71,0.00,21.92,2.84,0.00,0.00,0.00,0.00,18.60,2.82,0.00,5.23,17.01,0.00,4.92,1.71,3.59,0.00,0.00,0.14
0,29.79,21.52,4.00,8.15,18.15,0.00,0.00,3.74,27.93,5.13,0.00,8.13,15.37,0.00,20.55,2.75,0.00,0.00,0.00,0.00,18.53,2.82,0.00,5.04,16.93,0.00,4.92,1.70,3.57,0.00,0.00,0.14
0,31.35,24.05,4.00,8.79,17.52,0.00,0.00,3.50,28.17,5.13,0.00,8.25,15.03,0.00,20.55,2.61,0.00,0.00,0.00,0.00,18.62,2.82,0.00,5.14,17.13,0.00,6.56,1.78,3.54,0.00,0.00,0.14
0,30.88,24.05,4.00,8.60,16.81,0.00,0.00,3.23,28.98,5.13,0.00,8.43,15.23,0.00,20.55,2.64,0.00,0.00,0.00,0.00,18.91,2.82,0.00,5.15,17.63,0.00,8.20,1.86,3.60,0.00,0.00,0.14
0,31.52,25.32,4.00,8.58,16.75,0.00,0.00,3.25,28.82,5.13,0.00,8.49,14.91,0.00,17.81,2.57,0.00,0.00,0.00,0.00,18.32,2.82,0.00,4.92,17.50,0.00,8.20,1.91,3.52,0.00,0.00,0.14
0,30.21,21.52,4.00,8.07,17.36,0.00,0.00,3.36,28.67,5.13,0.00,8.46,15.13,0.00,17.81,2.62,0.00,0.00,0.00,0.00,18.50,2.82,0.00,4.96,17.32,0.00,6.56,1.92,3.37,0.00,0.00,0.13
0,30.06,21.52,4.00,8.04,16.90,0.00,0.00,3.20,28.90,5.13,0.00,8.28,15.16,0.00,17.81,2.61,0.00,0.00,0.00,0.00,18.77,2.82,0.00,4.98,17.31,0.00,6.56,1.75,3.37,0.00,0.00,0.13
0,29.86,21.52,4.00,8.02,16.99,0.00,0.00,3.25,29.09,5.13,0.00,8.14,14.66,0.00,17.81,2.29,0.00,0.00,0.00,0.00,18.66,2.82,0.00,4.87,17.94,0.00,6.56,1.90,3.25,0.00,0.00,0.12
0,29.89,21.52,4.00,8.07,17.09,0.00,0.00,3.36,28.25,5.13,0.00,7.58,14.46,0.00,16.44,2.30,0.00,0.00,0.00,0.00,17.66,1.41,0.00,4.37,18.68,0.00,6.56,2.17,3.24,0.00,0.00,0.12
0,29.21,18.99,4.00,7.84,16.85,0.00,0.00,3.37,28.57,5.13,0.00,7.55,14.70,0.00,17.81,2.33,0.00,0.00,0.00,0.00,18.20,1.41,0.00,4.41,19.85,0.00,8.20,2.43,3.31,0.00,0.00,0.13
0,28.80,17.72,4.00,7.53,16.17,0.00,0.00,2.96,27.71,5.13,0.00,7.04,14.81,0.00,17.81,2.33,0.00,0.00,0.00,0.00,18.64,1.41,0.00,4.61,19.89,0.00,8.20,2.43,3.13,0.00,0.00,0.12
0,26.44,12.66,0.00,6.41,16.00,0.00,0.00,2.80,28.03,5.13,0.00,7.07,14.89,0.00,17.81,2.26,0.00,0.00,0.00,0.00,18.26,1.41,0.00,4.53,20.19,0.00,8.20,2.44,3.08,0.00,0.00,0.12
0,26.24,12.66,0.00,6.39,15.91,0.00,0.00,2.78,26.68,2.56,0.00,6.07,14.78,0.00,16.44,2.19,0.00,0.00,0.00,0.00,17.41,1.41,0.00,4.04,20.99,0.00,8.20,2.51,3.09,0.00,0.00,0.11
0,25.65,10.13,0.00,6.06,15.47,0.00,0.00,2.58,26.84,2.56,0.00,5.91,14.67,0.00,15.07,2.19,0.00,0.00,0.00,0.00,17.04,1.41,0.00,3.98,20.58,0.00,8.20,2.40,3.06,0.00,0.00,0.11
0,25.47,10.13,0.00,5.97,16.17,0.00,0.00,2.68,27.52,2.56,0.00,6.03,14.97,0.00,15.07,2.22,0.00,0.00,0.00,0.00,16.91,1.41,0.00,3.75,20.57,0.00,8.20,2.39,3.08,0.00,0.00,0.11
0,25.21,8.86,0.00,5.88,15.86,0.00,0.00,2.54,27.95,2.56,0.00,6.08,14.93,0.00,15.07,2.20,0.00,0.00,0.00,0.00,16.56,1.41,0.00,3.63,20.49,0.00,8.20,2.33,3.14,0.00,0.00,0.11
0,24.49,7.59,0.00,5.26,15.89,0.00,0.00,2.56,27.88,2.56,0.00,6.34,14.72,0.00,15.07,2.12,0.00,0.00,0.00,0.00,15.39,0.00,0.00,3.03,19.58,0.00,6.56,2.18,3.12,0.00,0.00,0.11
0,23.89,7.59,0.00,5.19,16.30,0.00,0.00,2.67,27.83,2.56,0.00,6.32,14.52,0.00,15.07,1.98,0.00,0.00,0.00,0.00,15.11,0.00,0.00,3.00,19.36,0.00,4.92,2.14,3.10,0.00,0.00,0.11
0,22.90,5.06,0.00,4.54,16.57,0.00,0.00,2.72,27.52,2.56,0.00,6.24,14.43,0.00,13.70,2.00,0.00,0.00,0.00,0.00,14.89,0.00,0.00,2.93,19.62,0.00,4.92,2.17,3.17,0.00,0.00,0.12
0,22.91,5.06,0.00,4.53,16.23,0.00,0.00,2.59,26.46,0.00,0.00,5.18,14.26,0.00,13.70,1.87,0.00,0.00,0.00,0.00,14.99,0.00,0.00,3.23,19.70,0.00,4.92,2.14,3.15,0.00,0.00,0.12
0,22.85,5.06,0.00,4.59,16.23,0.00,0.00,2.53,26.36,0.00,0.00,5.27,14.48,0.00,13.70,1.92,0.00,0.00,0.00,0.00,14.51,0.00,0.00,3.04,20.07,0.00,4.92,2.16,3.34,0.00,0.00,0.13
0,22.53,5.06,0.00,4.57,16.53,0.00,0.00,2.63,26.98,0.00,0.00,5.82,14.09,0.00,12.33,1.90,0.00,0.00,0.00,0.00,14.26,0.00,0.00,2.99,20.42,0.00,4.92,2.18,3.16,0.00,0.00,0.12
0,22.62,5.06,0.00,4.56,16.98,0.00,0.00,2.73,27.03,0.00,0.00,6.26,14.34,0.00,12.33,2.00,0.00,0.00,0.00,0.00,14.03,0.00,0.00,2.95,20.04,0.00,4.92,2.14,3.12,0.00,0.00,0.12
0,21.26,2.53,0.00,4.09,17.18,0.00,0.00,2.72,27.59,0.00,0.00,6.64,15.13,0.00,15.07,2.13,0.00,0.00,0.00,0.00,13.26,0.00,0.00,2.74,19.55,0.00,3.28,2.07,3.04,0.00,0.00,0.11
0,20.69,2.53,0.00,3.85,17.76,0.00,0.00,2.81,26.98,0.00,0.00,6.69,14.67,0.00,15.07,2.05,0.00,0.00,0.00,0.00,12.87,0.00,0.00,2.60,19.45,0.00,1.64,2.04,2.97,0.00,0.00,0.11
0,20.65,2.53,0.00,3.79,17.65,0.00,0.00,2.77,27.71,0.00,0.00,7.21,14.57,0.00,15.07,2.00,0.00,0.00,0.00,0.00,13.18,0.00,0.00,2.62,19.23,0.00,1.64,1.96,2.97,0.00,0.00,0.11
0,20.04,1.27,0.00,3.55,17.83,0.00,0.00,2.84,28.38,0.00,0.00,7.53,15.18,0.00,17.81,2.27,0.00,0.00,0.00,0.00,13.02,0.00,0.00,2.61,19.44,0.00,1.64,1.96,3.09,0.00,0.00,0.12
0,19.48,1.27,0.00,3.43,17.40,0.00,0.00,2.58,29.67,0.00,0.00,8.19,15.34,0.00,19.18,2.35,0.00,0.00,0.00,0.00,12.31,0.00,0.00,2.42,19.32,0.00,1.64,1.96,3.17,0.00,0.00,0.12
0,21.12,3.80,2.00,4.25,17.35,0.00,0.00,2.55,29.48,0.00,0.00,8.25,15.19,0.00,16.44,2.33,0.00,0.00,0.00,0.00,12.44,0.00,0.00,2.41,18.97,0.00,1.64,1.81,3.09,0.00,0.00,0.12
0,21.07,5.06,2.00,4.44,17.14,0.00,0.00,2.43,29.25,0.00,0.00,8.43,15.51,0.00,17.81,2.48,0.00,0.00,0.00,0.00,12.44,0.00,0.00,2.46,18.82,0.00,3.28,1.74,3.10,0.00,0.00,0.12
0,22.56,7.59,2.00,5.05,17.39,0.00,0.00,2.48,29.65,0.00,0.00,8.52,15.57,0.00,17.81,2.57,0.00,0.00,0.00,0.00,12.01,0.00,0.00,2.35,17.81,0.00,1.64,1.44,3.11,0.00,0.00,0.12
0,23.31,7.59,2.00,5.54,17.45,0.00,0.00,2.55,29.86,0.00,0.00,8.74,15.86,0.00,20.55,2.78,0.00,0.00,0.00,0.00,11.69,0.00,0.00,2.23,18.14,0.00,1.64,1.55,3.16,0.00,0.00,0.12
0,22.49,6.33,2.00,5.33,17.54,0.00,0.00,2.59,30.97,0.00,0.00,9.47,16.47,0.00,20.55,3.22,0.00,0.00,0.00,0.00,12.63,0.00,0.00,2.58,18.35,0.00,1.64,1.64,3.14,0.00,0.00,0.12
0,22.74,6.33,2.00,5.31,17.82,0.00,0.00,2.66,31.82,0.00,0.00,9.87,16.47,0.00,20.55,3.27,0.00,0.00,0.00,0.00,12.64,0.00,0.00,2.63,18.38,0.00,1.64,1.64,3.25,0.00,0.00,0.13
0,22.91,8.86,2.00,5.39,18.06,0.00,0.00,2.69,31.80,0.00,0.00,9.96,16.34,0.00,19.18,3.25,0.00,0.00,0.00,0.00,12.69,0.00,0.00,2.62,18.62,0.00,1.64,1.71,3.20,0.00,0.00,0.12
0,23.16,8.86,2.00,5.70,18.04,0.00,0.00,2.79,32.05,0.00,0.00,10.40,16.17,0.00,19.18,3.26,0.00,0.00,0.00,0.00,12.57,0.00,0.00,2.66,18.80,0.00,1.64,1.79,3.22,0.00,0.00,0.13
0,23.26,8.86,2.00,5.72,18.04,0.00,0.00,2.76,31.48,0.00,0.00,10.44,15.96,0.00,16.44,3.29,0.00,0.00,0.00,0.00,13.02,0.00,0.00,2.77,19.00,0.00,1.64,1.84,3.07,0.00,0.00,0.12
0,23.17,8.86,2.00,5.67,18.04,0.00,0.00,2.79,31.70,0.00,0.00,10.39,16.41,0.00,17.81,3.42,0.00,0.00,0.00,0.00,13.54,0.00,0.00,3.03,18.91,0.00,3.28,1.87,3.29,0.00,0.00,0.13
0,23.36,8.86,2.00,5.70,18.51,0.00,0.00,2.97,32.89,0.00,0.00,10.83,16.62,0.00,20.55,3.47,0.00,0.00,0.00,0.00,14.41,0.00,0.00,3.22,18.95,0.00,6.56,1.84,3.31,0.00,0.00,0.12
0,23.26,8.86,2.00,5.69,18.10,0.00,0.00,2.87,32.20,0.00,0.00,10.63,16.31,0.00,20.55,3.34,0.00,0.00,0.00,0.00,14.96,0.00,0.00,3.62,19.07,0.00,6.56,1.82,3.30,0.00,0.00,0.12
0,23.63,8.86,2.00,5.83,17.91,0.00,0.00,2.85,31.64,0.00,0.00,10.59,15.99,0.00,19.18,3.29,0.00,0.00,0.00,0.00,14.95,0.00,0.00,3.37,18.59,0.00,6.56,1.76,3.42,0.00,0.00,0.13
0,24.14,10.13,2.00,5.98,17.72,0.00,0.00,2.88,31.26,0.00,0.00,10.63,16.20,0.00,19.18,3.41,0.00,0.00,0.00,0.00,15.05,0.00,0.00,3.44,18.86,0.00,6.56,1.83,3.27,0.00,0.00,0.12
0,23.96,10.13,2.00,5.81,17.74,0.00,0.00,2.91,30.79,0.00,0.00,10.33,16.55,0.00,20.55,3.48,0.00,0.00,0.00,0.00,15.22,0.00,0.00,3.48,19.00,0.00,6.56,1.87,3.26,0.00,0.00,0.12
0,25.27,13.92,2.00,6.44,17.76,0.00,0.00,3.03,29.71,0.00,0.00,9.87,16.21,0.00,20.55,3.37,0.00,0.00,0.00,0.00,15.33,0.00,0.00,3.48,19.43,0.00,6.56,1.92,3.19,0.00,0.00,0.11
0,25.65,13.92,2.00,6.42,17.83,0.00,0.00,3.17,29.01,0.00,0.00,9.22,15.74,0.00,17.81,3.29,0.00,0.00,0.00,0.00,16.15,0.00,0.00,3.79,19.14,0.00,6.56,1.90,3.27,0.00,0.00,0.12
0,27.60,17.72,6.00,7.42,18.66,2.22,2.33,4.19,29.41,0.00,0.00,9.57,16.28,0.00,19.18,3.52,0.00,0.00,0.00,0.00,16.69,0.00,0.00,3.89,19.57,0.00,6.56,1.92,3.37,0.00,0.00,0.12
0,28.76,18.99,6.00,7.97,19.88,4.44,2.33,5.85,29.84,0.00,0.00,9.60,16.82,0.00,21.92,3.66,0.00,0.00,0.00,0.00,16.91,0.00,0.00,4.07,20.59,0.00,9.84,2.35,3.46,0.00,0.00,0.13
0,29.30,18.99,6.00,8.16,20.17,4.44,2.33,5.90,28.88,0.00,0.00,9.18,16.03,0.00,19.18,3.35,0.00,0.00,0.00,0.00,16.72,0.00,0.00,4.08,20.98,0.00,9.84,2.43,3.43,0.00,0.00,0.12
0,31.19,22.78,6.00,9.07,21.00,4.44,2.33,6.35,28.35,0.00,0.00,8.92,15.72,0.00,17.81,3.27,0.00,0.00,0.00,0.00,17.38,0.00,0.00,4.37,21.47,0.00,9.84,2.56,3.42,0.00,0.00,0.12
0,30.18,20.25,4.00,8.38,20.71,4.44,2.33,6.51,28.08,0.00,0.00,8.52,16.07,0.00,19.18,3.32,0.00,0.00,0.00,0.00,17.71,0.00,0.00,4.60,21.83,0.00,11.48,2.72,3.45,0.00,0.00,0.12
0,30.02,18.99,4.00,8.12,20.73,4.44,2.33,6.64,27.32,0.00,0.00,8.22,15.67,0.00,17.81,3.19,0.00,0.00,0.00,0.00,17.40,0.00,0.00,4.51,21.55,0.00,9.84,2.68,3.39,0.00,0.00,0.11
0,29.10,18.99,4.00,8.07,20.66,4.44,2.33,6.60,26.34,0.00,0.00,7.74,15.67,0.00,17.81,3.08,0.00,0.00,0.00,0.00,17.24,0.00,0.00,4.47,22.43,0.00,9.84,2.93,3.32,0.00,0.00,0.11
0,29.03,20.25,4.00,7.74,20.20,4.44,2.33,6.46,26.52,0.00,0.00,7.81,15.15,0.00,15.07,2.83,0.00,0.00,0.00,0.00,16.95,0.00,0.00,4.36,22.45,0.00,11.48,2.87,3.50,0.00,0.00,0.12
0,29.10,20.25,4.00,7.71,19.89,4.44,2.33,6.41,25.54,0.00,0.00,7.05,13.92,0.00,13.70,2.33,0.00,0.00,0.00,0.00,16.52,0.00,0.00,4.24,22.00,0.00,11.48,2.79,3.50,0.00,0.00,0.12
0,30.39,22.78,4.00,8.25,19.74,4.44,2.33,6.35,25.42,0.00,0.00,6.96,14.35,0.00,16.44,2.44,0.00,0.00,0.00,0.00,16.66,0.00,0.00,4.14,22.56,0.00,13.11,2.89,3.52,0.00,0.00,0.13
0,30.36,22.78,4.00,8.50,19.93,4.44,2.33,6.42,25.51,0.00,0.00,6.87,14.56,0.00,16.44,2.44,0.00,0.00,0.00,0.00,16.71,0.00,0.00,4.17,22.48,0.00,13.11,2.80,3.45,0.00,0.00,0.12
0,29.71,21.52,4.00,7.95,19.88,4.44,2.33,6.52,25.89,0.00,0.00,6.88,14.58,0.00,16.44,2.46,0.00,0.00,0.00,0.00,17.43,1.41,0.00,4.70,22.43,0.00,13.11,2.77,3.32,0.00,0.00,0.11
0,30.22,22.78,4.00,8.35,19.71,4.44,2.33,6.58,25.23,0.00,0.00,6.49,14.85,0.00,20.55,2.53,0.00,0.00,0.00,0.00,17.72,1.41,0.00,5.04,22.26,0.00,13.11,2.75,3.43,0.00,0.00,0.12
0,30.04,22.78,4.00,8.39,19.51,4.44,2.33,6.53,24.68,0.00,0.00,6.15,14.72,0.00,20.55,2.42,0.00,0.00,0.00,0.00,17.24,1.41,0.00,4.77,21.81,0.00,11.48,2.65,3.46,0.00,0.00,0.12
0,30.83,25.32,4.00,8.83,19.58,4.44,2.33,6.48,23.32,0.00,0.00,5.58,14.45,0.00,17.81,2.34,0.00,0.00,0.00,0.00,16.91,1.41,0.00,4.83,21.43,0.00,8.20,2.66,3.35,0.00,0.00,0.12
0,31.31,25.32,4.00,8.82,19.22,4.44,2.33,6.40,23.35,0.00,0.00,5.63,14.69,0.00,19.18,2.37,0.00,0.00,0.00,0.00,16.01,1.41,0.00,4.36,21.70,0.00,8.20,2.66,3.29,0.00,0.00,0.11
0,30.74,25.32,4.00,8.62,19.81,4.44,2.33,6.59,23.76,0.00,0.00,5.61,14.86,0.00,19.18,2.33,0.00,0.00,0.00,0.00,15.51,1.41,0.00,4.24,22.00,0.00,8.20,2.70,3.14,0.00,0.00,0.11
0,31.05,26.58,4.00,8.70,20.52,4.44,2.33,6.81,23.88,0.00,0.00,5.39,14.27,0.00,17.81,2.14,0.00,0.00,0.00,0.00,15.33,1.41,0.00,4.08,22.01,0.00,8.20,2.68,3.15,0.00,0.00,0.11
0,31.44,26.58,4.00,8.90,20.50,4.44,2.33,6.80,25.30,0.00,0.00,6.09,14.43,0.00,17.81,2.17,0.00,0.00,0.00,0.00,15.65,1.41,0.00,4.17,22.02,0.00,11.48,2.73,3.18,0.00,0.00,0.11
0,31.12,24.05,4.00,8.66,20.52,4.44,2.33,6.61,25.35,0.00,0.00,6.16,14.37,0.00,17.81,2.16,0.00,0.00,0.00,0.00,15.65,1.41,0.00,4.18,21.95,0.00,11.48,2.69,3.22,0.00,0.00,0.11
0,31.18,25.32,4.00,8.89,20.42,4.44,2.33,6.62,25.76,0.00,0.00,6.25,14.32,0.00,17.81,2.19,0.00,0.00,0.00,0.00,14.85,1.41,0.00,3.92,21.80,0.00,11.48,2.70,3.25,0.00,0.00,0.12
0,29.10,21.52,0.00,7.79,20.74,4.44,0.00,6.85,26.86,0.00,0.00,6.45,13.86,0.00,16.44,1.97,0.00,0.00,0.00,0.00,14.43,1.41,0.00,3.78,22.41,0.00,11.48,2.76,3.44,0.00,0.00,0.13
0,28.73,22.78,0.00,7.69,18.24,0.00,0.00,3.99,25.32,0.00,0.00,5.58,13.01,0.00,13.70,1.79,0.00,0.00,0.00,0.00,14.06,1.41,0.00,3.55,21.54,0.00,9.84,2.37,3.32,0.00,0.00,0.13
0,28.73,22.78,0.00,7.64,18.04,0.00,0.00,3.98,25.91,0.00,0.00,6.14,13.37,0.00,15.07,1.91,0.00,0.00,0.00,0.00,14.57,1.41,0.00,3.69,21.38,0.00,9.84,2.32,3.38,0.00,0.00,0.13
0,27.28,20.25,0.00,7.02,17.30,0.00,0.00,3.64,26.27,0.00,0.00,6.48,13.36,0.00,15.07,2.01,0.00,0.00,0.00,0.00,15.05,1.41,0.00,4.03,21.67,0.00,13.11,2.35,3.44,0.00,0.00,0.14
0,26.76,18.99,0.00,6.86,17.34,0.00,0.00,3.38,26.77,0.00,0.00,6.68,13.29,0.00,13.70,1.98,0.00,0.00,0.00,0.00,14.79,1.41,0.00,3.68,21.09,0.00,11.48,2.21,3.44,0.00,0.00,0.14
0,27.88,20.25,0.00,7.34,17.50,0.00,0.00,3.31,27.07,0.00,0.00,6.95,12.95,0.00,13.70,1.95,0.00,0.00,0.00,0.00,14.85,1.41,0.00,3.73,21.41,0.00,13.11,2.23,3.49,0.00,0.00,0.14
0,28.03,18.99,0.00,7.38,17.51,0.00,0.00,3.28,26.98,0.00,0.00,7.00,13.16,0.00,13.70,2.02,0.00,0.00,0.00,0.00,15.34,1.41,0.00,3.87,21.14,0.00,13.11,2.05,3.57,0.00,0.00,0.15
0,27.25,17.72,0.00,7.06,17.72,0.00,0.00,3.28,27.05,0.00,0.00,7.04,13.52,0.00,16.44,2.09,0.00,0.00,0.00,0.00,15.79,1.41,0.00,4.00,20.59,0.00,11.48,1.91,3.49,0.00,0.00,0.14
0,26.92,16.46,0.00,6.88,18.39,0.00,0.00,3.42,26.87,0.00,0.00,6.88,13.91,0.00,16.44,2.10,0.00,0.00,0.00,0.00,15.90,1.41,0.00,4.09,19.93,0.00,11.48,1.82,3.57,0.00,0.00,0.15
0,26.67,15.19,0.00,6.81,18.38,0.00,0.00,3.39,26.47,0.00,0.00,6.60,13.79,0.00,15.07,2.07,0.00,0.00,0.00,0.00,15.89,1.41,0.00,4.01,19.54,0.00,11.48,1.76,3.49,0.00,0.00,0.14
0,26.82,13.92,0.00,6.71,18.31,0.00,0.00,3.35,26.18,0.00,0.00,6.58,13.83,0.00,15.07,2.09,0.00,0.00,0.00,0.00,16.30,1.41,0.00,4.07,18.82,0.00,9.84,1.67,3.61,0.00,0.00,0.15
0,26.76,13.92,0.00,6.52,18.41,0.00,0.00,3.43,25.70,0.00,0.00,6.38,13.91,0.00,16.44,2.13,0.00,0.00,0.00,0.00,15.93,0.00,0.00,3.82,19.39,0.00,9.84,1.74,3.57,0.00,0.00,0.15
0,26.28,12.66,0.00,6.20,17.81,0.00,0.00,3.17,25.69,0.00,0.00,6.32,13.34,0.00,12.33,1.96,0.00,0.00,0.00,0.00,15.78,0.00,0.00,3.54,19.77,0.00,11.48,1.80,3.48,0.00,0.00,0.14
0,27.02,15.19,0.00,6.44,18.13,0.00,0.00,3.26,26.15,0.00,0.00,6.56,13.65,0.00,12.33,2.01,0.00,0.00,0.00,0.00,16.02,0.00,0.00,3.74,20.60,0.00,11.48,1.93,3.47,0.00,0.00,0.15
0,26.71,12.66,0.00,6.04,17.28,0.00,0.00,2.99,26.81,0.00,0.00,6.74,13.97,0.00,13.70,2.17,0.00,0.00,0.00,0.00,15.79,0.00,0.00,3.47,20.56,0.00,11.48,1.91,3.54,0.00,0.00,0.15
0,26.09,12.66,0.00,5.84,17.95,0.00,0.00,3.21,26.71,0.00,0.00,6.80,14.02,0.00,12.33,2.20,0.00,0.00,0.00,0.00,16.31,0.00,0.00,3.58,20.33,0.00,11.48,1.89,3.77,0.00,0.00,0.16
0,26.93,13.92,0.00,6.23,17.84,0.00,0.00,3.10,26.40,0.00,0.00,6.77,13.92,0.00,12.33,2.23,0.00,0.00,0.00,0.00,16.91,0.00,0.00,3.71,20.23,0.00,11.48,1.91,3.79,0.00,0.00,0.16
0,26.76,12.66,0.00,6.21,17.55,0.00,0.00,2.89,27.13,0.00,0.00,7.21,14.96,0.00,15.07,2.58,0.00,0.00,0.00,0.00,17.29,0.00,0.00,3.86,20.17,0.00,11.48,1.87,3.85,0.00,0.00,0.17
0,26.03,11.39,0.00,5.90,17.26,0.00,0.00,2.86,25.72,0.00,0.00,6.38,14.58,0.00,13.70,2.46,0.00,0.00,0.00,0.00,17.34,0.00,0.00,4.04,19.58,0.00,8.20,1.70,3.82,0.00,0.00,0.17
0,26.24,12.66,0.00,5.96,17.09,0.00,0.00,2.82,26.02,0.00,0.00,6.60,15.06,0.00,15.07,2.55,0.00,0.00,0.00,0.00,17.46,0.00,0.00,4.19,19.30,0.00,8.20,1.73,3.93,0.00,0.00,0.17
0,26.00,10.13,0.00,5.69,16.81,0.00,0.00,2.78,26.49,0.00,0.00,6.93,15.05,0.00,15.07,2.50,0.00,0.00,0.00,0.00,17.59,0.00,0.00,4.19,19.37,0.00,8.20,1.76,4.03,0.00,0.00,0.18
0,25.95,10.13,0.00,5.90,17.01,0.00,0.00,2.84,25.84,0.00,0.00,6.70,15.64,0.00,16.44,2.64,0.00,0.00,0.00,0.00,17.49,0.00,0.00,4.17,19.11,0.00,8.20,1.74,3.86,0.00,0.00,0.17
0,26.78,12.66,0.00,6.35,17.06,0.00,0.00,2.91,26.44,0.00,0.00,6.97,16.58,0.00,17.81,3.09,0.00,0.00,0.00,0.00,17.56,0.00,0.00,4.24,18.23,0.00,6.56,1.58,3.87,0.00,0.00,0.17
0,25.17,10.13,0.00,5.79,17.08,0.00,0.00,2.90,26.07,0.00,0.00,6.84,15.94,0.00,16.44,2.95,0.00,0.00,0.00,0.00,17.45,0.00,0.00,4.20,17.97,0.00,6.56,1.59,3.74,0.00,0.00,0.16
0,25.55,10.13,0.00,5.88,18.21,0.00,0.00,3.25,25.47,0.00,0.00,6.38,15.70,0.00,16.44,2.79,0.00,0.00,0.00,0.00,16.90,0.00,0.00,4.00,17.32,0.00,3.28,1.45,3.72,0.00,0.00,0.16
0,25.95,10.13,0.00,5.86,17.67,0.00,0.00,3.24,25.43,0.00,0.00,6.47,16.16,0.00,17.81,2.98,0.00,0.00,0.00,0.00,16.71,0.00,0.00,3.98,18.11,0.00,6.56,1.55,3.89,0.00,0.00,0.17
0,26.23,10.13,0.00,5.75,17.44,0.00,0.00,3.18,26.22,0.00,0.00,6.97,16.42,0.00,17.81,3.11,0.00,0.00,0.00,0.00,16.28,0.00,0.00,3.74,17.19,0.00,4.92,1.40,3.75,0.00,0.00,0.16
0,26.27,10.13,0.00,5.71,17.45,0.00,0.00,3.18,26.56,0.00,0.00,7.18,16.59,0.00,17.81,3.19,0.00,0.00,0.00,0.00,15.54,0.00,0.00,3.54,16.91,0.00,4.92,1.37,3.67,0.00,0.00,0.16
0,26.27,10.13,0.00,5.64,17.46,0.00,0.00,3.18,26.71,0.00,0.00,7.10,16.29,0.00,17.81,3.11,0.00,0.00,0.00,0.00,15.21,0.00,0.00,3.47,17.71,0.00,6.56,1.59,3.64,0.00,0.00,0.15
0,26.65,10.13,0.00,5.70,17.21,0.00,0.00,3.13,27.61,0.00,0.00,7.56,16.40,0.00,17.81,3.24,0.00,0.00,0.00,0.00,15.55,0.00,0.00,3.54,18.21,0.00,8.20,1.66,3.55,0.00,0.00,0.14
0,26.16,10.13,0.00,5.68,16.95,0.00,0.00,3.10,27.84,0.00,0.00,7.85,15.99,0.00,16.44,3.16,0.00,0.00,0.00,0.00,15.37,0.00,0.00,3.48,18.41,0.00,8.20,1.66,3.51,0.00,0.00,0.14
0,25.27,8.86,0.00,5.37,16.95,0.00,0.00,3.09,28.56,0.00,0.00,8.63,15.94,0.00,16.44,3.24,0.00,0.00,0.00,0.00,14.88,0.00,0.00,3.38,17.94,0.00,8.20,1.63,3.41,0.00,0.00,0.13
0,25.39,8.86,0.00,5.30,16.61,0.00,0.00,2.89,28.60,0.00,0.00,8.75,15.58,0.00,15.07,3.14,0.00,0.00,0.00,0.00,14.73,0.00,0.00,3.49,17.24,0.00,8.20,1.54,3.36,0.00,0.00,0.13
0,25.38,8.86,0.00,5.23,17.32,0.00,0.00,2.97,29.09,0.00,0.00,8.86,15.51,0.00,15.07,3.16,0.00,0.00,0.00,0.00,14.86,0.00,0.00,3.51,16.77,0.00,6.56,1.50,3.37,0.00,0.00,0.13
0,25.82,10.13,0.00,5.57,17.34,0.00,0.00,3.00,29.65,0.00,0.00,9.15,15.48,0.00,13.70,3.21,0.00,0.00,0.00,0.00,14.87,0.00,0.00,3.46,16.64,0.00,6.56,1.46,3.29,0.00,0.00,0.13
0,24.63,7.59,0.00,5.07,17.16,0.00,0.00,2.96,30.26,0.00,0.00,9.64,15.21,0.00,12.33,3.13,0.00,0.00,0.00,0.00,15.02,0.00,0.00,3.46,16.03,0.00,6.56,1.37,3.19,0.00,0.00,0.12
0,25.32,8.86,0.00,5.48,17.16,0.00,0.00,3.02,31.32,0.00,0.00,10.15,15.51,0.00,13.70,3.20,0.00,0.00,0.00,0.00,14.85,0.00,0.00,3.48,16.05,0.00,6.56,1.42,3.23,0.00,0.00,0.12
0,24.68,8.86,0.00,5.40,16.73,0.00,0.00,2.97,32.49,0.00,0.00,10.43,15.69,0.00,15.07,3.24,0.00,0.00,0.00,0.00,15.08,0.00,0.00,3.53,16.37,0.00,6.56,1.47,3.10,0.00,0.00,0.11
0,25.58,10.13,0.00,5.96,16.72,0.00,0.00,2.95,32.89,0.00,0.00,10.78,15.17,0.00,12.33,3.02,0.00,0.00,0.00,0.00,15.09,0.00,0.00,3.49,16.35,0.00,6.56,1.47,3.06,0.00,0.00,0.11
0,26.81,12.66,0.00,6.44,17.22,0.00,0.00,3.13,32.30,0.00,0.00,10.61,15.16,0.00,12.33,3.02,0.00,0.00,0.00,0.00,15.04,0.00,0.00,3.39,17.26,0.00,8.20,1.74,3.03,0.00,0.00,0.11
0,27.01,12.66,0.00,6.64,16.84,0.00,0.00,3.09,32.26,0.00,0.00,10.58,14.88,0.00,12.33,2.97,0.00,0.00,0.00,0.00,14.83,0.00,0.00,3.28,17.33,0.00,8.20,1.73,3.00,0.00,0.00,0.11
0,26.29,11.39,0.00,6.44,16.82,0.00,0.00,2.97,32.78,0.00,0.00,10.74,15.18,0.00,12.33,3.14,0.00,0.00,0.00,0.00,14.88,0.00,0.00,3.35,17.49,0.00,8.20,1.73,2.84,0.00,0.00,0.10
0,26.22,11.39,0.00,6.32,16.55,0.00,0.00,2.83,31.52,0.00,0.00,10.32,14.88,0.00,10.96,3.07,0.00,0.00,0.00,0.00,14.93,0.00,0.00,3.41,17.88,0.00,9.84,1.81,2.89,0.00,0.00,0.10
0,25.43,10.13,0.00,6.05,16.44,0.00,0.00,2.71,31.52,0.00,0.00,10.02,14.07,0.00,9.59,2.64,0.00,0.00,0.00,0.00,15.32,0.00,0.00,3.41,17.79,0.00,9.84,1.78,2.80,0.00,0.00,0.10
0,26.35,10.13,0.00,6.35,16.07,0.00,0.00,2.64,31.42,0.00,0.00,9.98,14.53,0.00,9.59,2.75,0.00,0.00,0.00,0.00,14.80,0.00,0.00,3.34,18.46,0.00,9.84,1.89,2.87,0.00,0.00,0.10
0,27.03,11.39,0.00,6.67,15.83,0.00,0.00,2.61,34.40,5.13,0.00,13.24,14.82,0.00,10.96,2.80,0.00,0.00,0.00,0.00,14.66,0.00,0.00,3.20,18.56,0.00,9.84,1.95,2.83,0.00,0.00,0.10
0,26.92,11.39,0.00,6.76,15.49,0.00,0.00,2.40,34.83,5.13,0.00,13.60,14.74,0.00,10.96,2.79,0.00,0.00,0.00,0.00,14.76,0.00,0.00,3.19,18.95,0.00,8.20,2.03,2.68,0.00,0.00,0.09
0,28.29,15.19,0.00,7.58,15.57,0.00,0.00,2.42,34.85,7.69,0.00,14.08,14.76,0.00,10.96,2.72,0.00,0.00,0.00,0.00,15.41,0.00,0.00,3.35,18.77,0.00,8.20,2.03,2.79,0.00,0.00,0.09
0,29.31,16.46,0.00,8.53,15.00,0.00,0.00,2.24,35.19,7.69,0.00,13.95,14.31,0.00,9.59,2.48,0.00,0.00,0.00,0.00,15.77,0.00,0.00,3.43,18.76,0.00,8.20,2.03,2.82,0.00,0.00,0.09
0,29.16,16.46,0.00,8.47,15.77,0.00,0.00,2.37,34.94,7.69,0.00,13.90,13.69,0.00,6.85,2.42,0.00,0.00,0.00,0.00,15.69,0.00,0.00,3.40,17.97,0.00,6.56,1.83,2.78,0.00,0.00,0.09
0,29.69,16.46,0.00,8.60,15.44,0.00,0.00,2.27,33.82,7.69,0.00,13.44,14.53,0.00,9.59,2.65,0.00,0.00,0.00,0.00,15.18,0.00,0.00,3.27,17.51,0.00,4.92,1.77,2.85,0.00,0.00,0.10
0,30.38,17.72,0.00,9.02,15.86,0.00,0.00,2.33,33.48,7.69,0.00,13.34,14.48,0.00,9.59,2.56,0.00,0.00,0.00,0.00,15.38,0.00,0.00,3.36,18.24,0.00,4.92,1.85,2.93,0.00,0.00,0.11
0,30.64,17.72,0.00,9.05,15.76,0.00,0.00,2.31,32.91,7.69,0.00,12.68,14.22,0.00,9.59,2.47,0.00,0.00,0.00,0.00,15.48,0.00,0.00,3.34,18.97,0.00,4.92,1.91,2.99,0.00,0.00,0.11
0,30.31,17.72,0.00,9.05,15.75,0.00,0.00,2.32,32.81,7.69,0.00,12.52,14.87,0.00,10.96,2.59,0.00,0.00,0.00,0.00,15.40,0.00,0.00,3.33,19.26,0.00,4.92,1.94,3.05,0.00,0.00,0.12
0,30.27,17.72,0.00,9.15,15.15,0.00,0.00,2.24,32.49,7.69,0.00,12.47,15.04,0.00,10.96,2.60,0.00,0.00,0.00,0.00,14.56,0.00,0.00,3.04,19.07,0.00,4.92,1.93,3.00,0.00,0.00,0.12
0,29.34,16.46,0.00,8.81,15.13,0.00,0.00,2.15,33.03,7.69,0.00,12.72,15.25,0.00,10.96,2.69,0.00,0.00,0.00,0.00,14.16,0.00,0.00,2.79,19.14,0.00,4.92,1.92,2.96,0.00,0.00,0.11
0,30.15,16.46,0.00,8.99,15.70,0.00,0.00,2.30,31.93,7.69,0.00,12.05,15.35,0.00,12.33,2.70,0.00,0.00,0.00,0.00,14.47,0.00,0.00,3.03,19.70,0.00,4.92,1.97,3.06,0.00,0.00,0.12
0,30.04,16.46,0.00,9.09,15.01,0.00,0.00,2.05,31.03,7.69,0.00,11.69,15.02,0.00,10.96,2.64,0.00,0.00,0.00,0.00,14.62,0.00,0.00,3.20,19.85,0.00,4.92,1.95,3.03,0.00,0.00,0.12
0,29.38,13.92,0.00,8.52,15.00,0.00,0.00,2.00,30.67,7.69,0.00,11.61,15.01,0.00,10.96,2.66,0.00,0.00,0.00,0.00,14.08,0.00,0.00,2.99,19.43,0.00,4.92,1.89,3.02,0.00,0.00,0.11
0,30.85,17.72,0.00,10.12,15.01,0.00,0.00,2.00,29.63,7.69,0.00,10.87,14.74,0.00,10.96,2.58,0.00,0.00,0.00,0.00,14.60,0.00,0.00,3.16,19.20,0.00,4.92,1.87,2.97,0.00,0.00,0.11
0,30.01,16.46,0.00,9.67,14.64,0.00,0.00,1.93,29.83,7.69,0.00,11.15,14.48,0.00,10.96,2.61,0.00,0.00,0.00,0.00,13.96,0.00,0.00,3.07,18.24,0.00,3.28,1.72,3.08,0.00,0.00,0.12
0,31.05,17.72,2.00,10.09,15.10,0.00,0.00,1.93,29.70,7.69,0.00,11.12,14.51,0.00,9.59,2.72,0.00,0.00,0.00,0.00,14.22,0.00,0.00,3.12,18.32,0.00,3.28,1.67,2.98,0.00,0.00,0.11
0,31.13,17.72,2.00,10.21,14.93,0.00,0.00,1.93,29.97,7.69,0.00,10.80,14.85,0.00,12.33,2.78,0.00,0.00,0.00,0.00,13.76,0.00,0.00,2.98,18.64,0.00,3.28,1.73,3.01,0.00,0.00,0.11
0,30.41,17.72,2.00,10.12,14.82,0.00,0.00,1.89,30.57,7.69,0.00,10.98,14.84,0.00,12.33,2.76,0.00,0.00,0.00,0.00,13.98,0.00,0.00,2.95,18.07,0.00,1.64,1.63,3.03,0.00,0.00,0.11
0,32.06,21.52,4.00,10.74,15.09,0.00,0.00,2.06,31.02,7.69,0.00,11.11,14.64,0.00,12.33,2.70,0.00,0.00,0.00,0.00,14.04,0.00,0.00,2.99,17.94,0.00,1.64,1.62,3.08,0.00,0.00,0.11
0,31.36,21.52,4.00,10.54,15.30,0.00,0.00,2.12,31.14,7.69,0.00,11.28,15.06,0.00,13.70,2.74,0.00,0.00,0.00,0.00,13.52,0.00,0.00,2.86,18.11,0.00,1.64,1.64,3.18,0.00,0.00,0.12
0,30.93,21.52,4.00,10.41,14.91,0.00,0.00,1.93,28.35,2.56,0.00,8.42,14.95,0.00,12.33,2.82,0.00,0.00,0.00,0.00,13.67,0.00,0.00,2.89,17.74,0.00,1.64,1.52,3.13,0.00,0.00,0.12
0,30.57,21.52,4.00,10.29,14.87,0.00,0.00,1.92,27.84,2.56,0.00,7.87,15.25,0.00,13.70,2.91,0.00,0.00,0.00,0.00,13.28,0.00,0.00,2.82,17.71,0.00,1.64,1.57,3.25,0.00,0.00,0.12
0,30.11,20.25,4.00,9.91,15.01,0.00,0.00,1.99,27.14,0.00,0.00,6.90,15.60,0.00,15.07,2.92,0.00,0.00,0.00,0.00,13.29,0.00,0.00,2.79,17.54,0.00,0.00,1.55,3.18,0.00,0.00,0.12
0,28.62,18.99,4.00,8.74,15.28,0.00,0.00,2.03,26.48,0.00,0.00,6.85,15.70,0.00,15.07,3.02,0.00,0.00,0.00,0.00,13.26,0.00,0.00,2.82,17.38,0.00,0.00,1.54,3.21,0.00,0.00,0.12
0,29.72,20.25,4.00,9.21,14.75,0.00,0.00,1.93,26.47,0.00,0.00,6.73,16.07,0.00,15.07,3.10,0.00,0.00,0.00,0.00,13.04,0.00,0.00,2.80,18.14,0.00,0.00,1.61,3.21,0.00,0.00,0.12
0,30.10,21.52,4.00,9.89,14.36,0.00,0.00,1.91,26.88,0.00,0.00,6.82,15.73,0.00,13.70,2.98,0.00,0.00,0.00,0.00,13.29,0.00,0.00,2.89,18.97,0.00,3.28,1.86,3.19,0.00,0.00,0.11
0,29.21,20.25,4.00,9.53,14.36,0.00,0.00,1.94,27.61,0.00,0.00,7.59,15.73,0.00,15.07,3.01,0.00,0.00,0.00,0.00,13.60,0.00,0.00,2.92,19.12,0.00,3.28,1.93,3.07,0.00,0.00,0.10
0,29.21,20.25,4.00,9.63,14.28,0.00,0.00,1.93,27.45,0.00,0.00,7.55,15.55,0.00,15.07,2.99,0.00,0.00,0.00,0.00,14.78,1.41,0.00,4.19,18.93,0.00,4.92,1.94,3.09,0.00,0.00,0.10
0,29.28,20.25,4.00,9.71,14.44,0.00,0.00,2.00,27.09,0.00,0.00,7.63,15.50,0.00,13.70,2.96,0.00,0.00,0.00,0.00,15.28,1.41,0.00,4.41,18.84,0.00,4.92,1.93,3.11,0.00,0.00,0.10
0,29.18,20.25,4.00,9.60,14.53,0.00,0.00,2.01,28.45,0.00,0.00,8.69,16.46,0.00,17.81,3.34,0.00,0.00,0.00,0.00,16.00,1.41,0.00,4.61,19.11,0.00,4.92,1.96,3.13,0.00,0.00,0.10
0,29.82,21.52,4.00,9.98,14.76,0.00,0.00,2.11,27.68,0.00,0.00,8.69,16.56,0.00,19.18,3.36,0.00,0.00,0.00,0.00,15.91,1.41,0.00,4.67,18.96,0.00,4.92,1.98,3.24,0.00,0.00,0.11
0,29.91,21.52,4.00,10.03,14.47,0.00,0.00,2.08,27.41,0.00,0.00,8.79,16.32,0.00,17.81,3.27,0.00,0.00,0.00,0.00,16.31,1.41,0.00,4.59,18.59,0.00,4.92,1.96,3.27,0.00,0.00,0.11
0,29.40,21.52,4.00,9.82,14.71,0.00,0.00,2.04,27.94,0.00,0.00,8.99,16.26,0.00,17.81,3.29,0.00,0.00,0.00,0.00,16.63,1.41,0.00,4.65,18.35,0.00,4.92,1.93,3.13,0.00,0.00,0.10
0,29.51,21.52,4.00,9.78,14.95,0.00,0.00,2.04,27.57,0.00,0.00,8.82,16.15,0.00,16.44,3.27,0.00,0.00,0.00,0.00,17.03,1.41,0.00,4.94,17.97,0.00,4.92,1.88,3.18,0.00,0.00,0.10
0,29.35,20.25,4.00,8.90,14.84,0.00,0.00,2.05,27.82,0.00,0.00,8.75,16.29,0.00,16.44,3.28,0.00,0.00,0.00,0.00,16.89,1.41,0.00,4.88,18.80,0.00,4.92,1.96,3.25,0.00,0.00,0.11
0,28.61,18.99,4.00,8.48,14.78,0.00,0.00,2.07,28.76,2.56,0.00,9.64,16.59,0.00,17.81,3.29,0.00,0.00,0.00,0.00,16.80,1.41,0.00,4.88,18.63,0.00,4.92,1.95,3.33,0.00,0.00,0.11
0,26.77,15.19,2.00,7.97,14.58,0.00,0.00,2.03,28.17,2.56,0.00,9.15,16.67,0.00,17.81,3.17,0.00,0.00,0.00,0.00,15.92,1.41,0.00,4.55,18.89,0.00,4.92,1.99,3.36,0.00,0.00,0.11
0,26.32,15.19,2.00,7.26,15.16,0.00,0.00,2.22,28.58,2.56,0.00,9.40,16.17,0.00,15.07,2.95,0.00,0.00,0.00,0.00,16.03,1.41,0.00,4.48,19.40,0.00,6.56,2.12,3.32,0.00,0.00,0.11
0,26.64,15.19,2.00,7.34,15.03,0.00,0.00,2.22,28.38,2.56,0.00,9.33,16.48,0.00,16.44,3.05,0.00,0.00,0.00,0.00,16.74,1.41,0.00,4.75,19.49,0.00,6.56,2.13,3.30,0.00,0.00,0.11
0,25.49,12.66,0.00,6.68,14.81,0.00,0.00,2.09,28.47,2.56,0.00,9.47,16.68,0.00,17.81,3.11,0.00,0.00,0.00,0.00,16.77,1.41,0.00,4.76,20.02,0.00,6.56,2.17,3.28,0.00,0.00,0.11
0,26.38,12.66,2.00,6.93,14.59,0.00,0.00,2.00,29.09,2.56,0.00,10.02,16.64,0.00,17.81,3.12,0.00,0.00,0.00,0.00,17.03,1.41,0.00,4.80,19.72,0.00,6.56,2.11,3.21,0.00,0.00,0.10
0,26.79,12.66,2.00,7.19,14.72,0.00,0.00,2.05,29.33,2.56,0.00,10.28,17.36,0.00,19.18,3.39,0.00,0.00,0.00,0.00,17.16,1.41,0.00,4.81,19.40,0.00,6.56,2.09,3.30,0.00,0.00,0.11
0,27.48,13.92,2.00,7.39,14.90,0.00,0.00,2.09,30.32,2.56,0.00,10.54,16.83,0.00,17.81,3.19,0.00,0.00,0.00,0.00,17.39,1.41,0.00,4.86,19.20,0.00,6.56,2.00,3.17,0.00,0.00,0.10
0,27.09,13.92,2.00,7.48,14.70,0.00,0.00,2.05,29.80,2.56,0.00,10.46,16.51,0.00,16.44,3.13,0.00,0.00,0.00,0.00,17.38,1.41,0.00,4.82,18.89,0.00,6.56,1.93,3.19,0.00,0.00,0.10
0,26.63,10.13,2.00,7.24,14.55,0.00,0.00,2.02,30.72,2.56,0.00,11.42,16.48,0.00,16.44,3.13,0.00,0.00,0.00,0.00,17.20,1.41,0.00,4.69,19.24,0.00,6.56,1.96,3.38,0.00,0.00,0.11
0,25.70,10.13,2.00,7.04,14.70,0.00,0.00,2.06,30.42,2.56,0.00,11.64,16.51,0.00,17.81,3.20,0.00,0.00,0.00,0.00,17.46,1.41,0.00,4.85,19.50,0.00,6.56,2.00,3.34,0.00,0.00,0.11
0,24.60,8.86,2.00,6.17,15.10,0.00,0.00,2.09,30.41,2.56,0.00,11.53,16.59,0.00,17.81,3.14,0.00,0.00,0.00,0.00,17.40,1.41,0.00,4.79,18.57,0.00,3.28,1.71,3.37,0.00,0.00,0.12
0,25.15,8.86,2.00,6.25,15.68,0.00,0.00,2.17,29.58,2.56,0.00,10.85,16.37,0.00,16.44,3.08,0.00,0.00,0.00,0.00,17.35,1.41,0.00,4.77,18.34,0.00,3.28,1.63,3.46,0.00,0.00,0.12
0,24.89,8.86,2.00,6.07,15.71,0.00,0.00,2.21,30.11,2.56,0.00,11.15,16.52,0.00,16.44,3.13,0.00,0.00,0.00,0.00,16.39,0.00,0.00,3.71,17.48,0.00,1.64,1.52,3.52,0.00,0.00,0.13
0,26.13,10.13,2.00,6.50,15.57,0.00,0.00,2.14,30.32,2.56,0.00,11.43,16.91,0.00,16.44,3.25,0.00,0.00,0.00,0.00,16.55,0.00,0.00,3.73,17.11,0.00,1.64,1.46,3.52,0.00,0.00,0.13
0,26.35,11.39,2.00,6.78,15.78,0.00,0.00,2.18,29.93,2.56,0.00,10.63,16.29,0.00,15.07,2.97,0.00,0.00,0.00,0.00,16.38,0.00,0.00,3.80,17.04,0.00,1.64,1.46,3.58,0.00,0.00,0.13
0,26.12,10.13,2.00,6.56,15.10,0.00,0.00,2.06,30.17,2.56,0.00,9.84,16.18,0.00,13.70,2.85,0.00,0.00,0.00,0.00,16.30,0.00,0.00,3.59,16.53,0.00,1.64,1.37,3.57,0.00,0.00,0.13
0,25.58,10.13,2.00,6.40,15.20,0.00,0.00,2.16,30.70,2.56,0.00,9.90,16.10,0.00,15.07,2.85,0.00,0.00,0.00,0.00,16.17,0.00,0.00,3.67,16.68,0.00,1.64,1.43,3.54,0.00,0.00,0.13
0,26.84,12.66,2.00,6.99,15.35,0.00,0.00,2.21,30.45,2.56,0.00,9.85,15.93,0.00,15.07,2.75,0.00,0.00,0.00,0.00,15.45,0.00,0.00,3.32,17.56,0.00,1.64,1.53,3.55,0.00,0.00,0.13
0,26.85,12.66,2.00,7.07,14.86,0.00,0.00,2.10,31.73,5.13,0.00,10.96,15.84,0.00,15.07,2.70,0.00,0.00,0.00,0.00,15.45,0.00,0.00,3.28,18.38,0.00,1.64,1.65,3.50,0.00,0.00,0.13
0,26.25,11.39,2.00,7.13,15.02,0.00,0.00,2.18,31.59,5.13,0.00,10.90,15.99,0.00,15.07,2.74,0.00,0.00,0.00,0.00,15.16,0.00,0.00,3.19,18.19,0.00,1.64,1.63,3.52,0.00,0.00,0.13
0,26.24,11.39,2.00,7.15,14.65,0.00,0.00,2.04,30.09,2.56,0.00,10.08,16.10,0.00,13.70,2.88,0.00,0.00,0.00,0.00,14.85,0.00,0.00,2.99,18.32,0.00,1.64,1.65,3.42,0.00,0.00,0.12
0,26.41,11.39,2.00,7.08,14.29,0.00,0.00,1.95,30.48,2.56,0.00,10.23,16.31,0.00,15.07,2.92,0.00,0.00,0.00,0.00,15.09,0.00,0.00,3.03,18.43,0.00,3.28,1.64,3.35,0.00,0.00,0.12
0,27.30,13.92,2.00,7.20,14.32,0.00,0.00,1.86,29.53,2.56,0.00,9.91,15.92,0.00,15.07,2.89,0.00,0.00,0.00,0.00,15.16,0.00,0.00,3.06,17.77,0.00,1.64,1.52,3.54,0.00,0.00,0.13
0,28.26,16.46,2.00,7.76,14.59,0.00,0.00,1.95,29.20,2.56,0.00,9.79,15.68,0.00,13.70,2.78,0.00,0.00,0.00,0.00,14.24,0.00,0.00,2.77,17.31,0.00,1.64,1.39,3.50,0.00,0.00,0.13
0,28.16,16.46,2.00,7.78,14.85,0.00,0.00,2.06,28.96,2.56,0.00,9.82,15.88,0.00,12.33,2.81,0.00,0.00,0.00,0.00,14.10,0.00,0.00,2.75,17.10,0.00,1.64,1.34,3.48,0.00,0.00,0.13
0,27.64,15.19,0.00,7.74,15.05,0.00,0.00,2.10,28.29,2.56,0.00,9.43,15.84,0.00,13.70,2.82,0.00,0.00,0.00,0.00,14.16,0.00,0.00,2.80,18.22,0.00,4.92,1.60,3.53,0.00,0.00,0.13
0,27.04,15.19,0.00,7.01,14.97,0.00,0.00,2.09,28.26,2.56,0.00,9.09,15.30,0.00,13.70,2.56,0.00,0.00,0.00,0.00,13.96,0.00,0.00,2.75,18.60,0.00,4.92,1.70,3.58,0.00,0.00,0.13
0,26.62,15.19,0.00,6.87,15.28,0.00,0.00,2.23,28.51,2.56,0.00,9.13,14.99,0.00,12.33,2.47,0.00,0.00,0.00,0.00,14.07,0.00,0.00,2.81,19.25,0.00,6.56,1.91,3.59,0.00,0.00,0.13
0,27.53,16.46,0.00,7.12,15.71,0.00,0.00,2.41,28.28,2.56,0.00,9.14,14.65,0.00,12.33,2.41,0.00,0.00,0.00,0.00,14.51,0.00,0.00,2.99,20.09,0.00,6.56,2.05,3.52,0.00,0.00,0.13
0,27.54,16.46,0.00,7.07,15.61,0.00,0.00,2.39,27.92,2.56,0.00,8.32,14.94,0.00,13.70,2.45,0.00,0.00,0.00,0.00,14.26,0.00,0.00,2.94,19.98,0.00,6.56,2.03,3.37,0.00,0.00,0.12
0,27.34,16.46,0.00,6.94,15.41,0.00,0.00,2.35,27.67,2.56,0.00,8.01,14.52,0.00,12.33,2.35,0.00,0.00,0.00,0.00,13.61,0.00,0.00,2.69,19.25,0.00,6.56,1.96,3.38,0.00,0.00,0.12
0,27.47,15.19,0.00,6.95,15.24,0.00,0.00,2.34,28.09,2.56,0.00,8.08,14.79,0.00,12.33,2.38,0.00,0.00,0.00,0.00,14.11,0.00,0.00,2.83,19.05,0.00,6.56,1.94,3.50,0.00,0.00,0.13
0,27.83,16.46,0.00,6.87,15.30,0.00,0.00,2.39,27.86,2.56,0.00,7.88,14.97,0.00,12.33,2.41,0.00,0.00,0.00,0.00,14.44,0.00,0.00,3.13,19.95,0.00,9.84,2.23,3.48,0.00,0.00,0.13
0,27.82,16.46,0.00,6.91,14.69,0.00,0.00,2.26,27.09,2.56,0.00,7.38,14.92,0.00,12.33,2.39,0.00,0.00,0.00,0.00,14.54,0.00,0.00,3.12,20.16,0.00,9.84,2.25,3.45,0.00,0.00,0.13
0,27.18,16.46,0.00,6.83,14.97,0.00,0.00,2.35,26.03,2.56,0.00,6.87,14.97,0.00,15.07,2.27,0.00,0.00,0.00,0.00,13.68,0.00,0.00,2.91,21.20,0.00,9.84,2.35,3.35,0.00,0.00,0.12
0,26.65,17.72,0.00,6.48,15.24,0.00,0.00,2.36,25.66,2.56,0.00,6.70,14.44,0.00,12.33,2.14,0.00,0.00,0.00,0.00,13.83,0.00,0.00,2.81,21.10,0.00,9.84,2.33,3.34,0.00,0.00,0.12
0,26.31,17.72,0.00,6.35,15.45,0.00,0.00,2.39,25.42,2.56,0.00,6.85,14.74,0.00,13.70,2.27,0.00,0.00,0.00,0.00,13.18,0.00,0.00,2.68,21.50,0.00,9.84,2.36,3.29,0.00,0.00,0.11
0,27.52,18.99,0.00,6.66,15.79,0.00,0.00,2.46,24.86,2.56,0.00,6.62,14.75,0.00,12.33,2.21,0.00,0.00,0.00,0.00,13.53,0.00,0.00,2.73,21.52,0.00,9.84,2.33,3.26,0.00,0.00,0.11
0,27.00,17.72,0.00,6.30,15.45,0.00,0.00,2.38,24.91,2.56,0.00,6.44,14.44,0.00,12.33,2.16,0.00,0.00,0.00,0.00,13.55,0.00,0.00,2.75,21.08,0.00,9.84,2.27,3.21,0.00,0.00,0.11
0,27.75,18.99,0.00,6.62,15.92,0.00,0.00,2.46,23.58,0.00,0.00,5.41,14.71,0.00,12.33,2.16,0.00,0.00,0.00,0.00,12.78,0.00,0.00,2.50,20.38,0.00,9.84,2.18,3.33,0.00,0.00,0.12
0,27.91,20.25,0.00,6.68,15.96,0.00,0.00,2.46,23.50,0.00,0.00,5.57,15.16,0.00,15.07,2.23,0.00,0.00,0.00,0.00,12.91,0.00,0.00,2.50,20.51,0.00,11.48,2.21,3.37,0.00,0.00,0.12
0,27.99,20.25,0.00,6.64,16.31,0.00,0.00,2.65,25.47,2.56,0.00,6.80,14.86,0.00,15.07,2.17,0.00,0.00,0.00,0.00,13.20,0.00,0.00,2.54,20.58,0.00,11.48,2.20,3.47,0.00,0.00,0.13
0,28.00,20.25,0.00,6.69,16.66,0.00,0.00,2.70,26.48,2.56,0.00,7.16,15.09,0.00,15.07,2.15,0.00,0.00,0.00,0.00,13.03,0.00,0.00,2.60,20.28,0.00,9.84,2.15,3.61,0.00,0.00,0.14
0,27.76,18.99,0.00,6.67,16.35,0.00,0.00,2.64,25.98,2.56,0.00,6.92,15.42,0.00,16.44,2.18,0.00,0.00,0.00,0.00,12.90,0.00,0.00,2.61,20.27,0.00,9.84,2.16,3.45,0.00,0.00,0.13
0,26.70,16.46,0.00,6.40,16.17,0.00,0.00,2.57,26.77,2.56,0.00,7.08,15.21,0.00,16.44,2.14,0.00,0.00,0.00,0.00,13.42,0.00,0.00,2.77,21.27,0.00,13.11,2.41,3.47,0.00,0.00,0.14
0,26.65,16.46,0.00,6.26,16.08,0.00,0.00,2.49,26.16,2.56,0.00,6.70,14.81,0.00,16.44,2.10,0.00,0.00,0.00,0.00,13.63,0.00,0.00,2.81,21.99,0.00,13.11,2.47,3.47,0.00,0.00,0.14
0,27.18,16.46,0.00,6.44,15.98,0.00,0.00,2.46,25.87,2.56,0.00,6.58,14.71,0.00,15.07,2.07,0.00,0.00,0.00,0.00,13.69,0.00,0.00,2.99,20.87,0.00,9.84,2.24,3.37,0.00,0.00,0.13
0,26.76,13.92,0.00,6.26,15.55,0.00,0.00,2.42,25.19,2.56,0.00,5.96,14.42,0.00,13.70,1.95,0.00,0.00,0.00,0.00,13.75,0.00,0.00,3.04,20.50,0.00,9.84,2.20,3.31,0.00,0.00,0.13
0,27.05,13.92,0.00,6.29,15.28,0.00,0.00,2.38,24.89,2.56,0.00,5.73,14.68,0.00,13.70,2.00,0.00,0.00,0.00,0.00,13.71,0.00,0.00,3.06,20.20,0.00,8.20,2.07,3.48,0.00,0.00,0.14
0,26.84,12.66,0.00,6.29,14.53,0.00,0.00,2.12,24.53,2.56,0.00,5.50,14.79,0.00,13.70,2.02,0.00,0.00,0.00,0.00,13.91,0.00,0.00,3.18,20.79,0.00,9.84,2.32,3.48,0.00,0.00,0.14
0,25.72,11.39,0.00,5.82,14.73,0.00,0.00,2.11,23.64,2.56,0.00,5.19,14.85,0.00,12.33,2.04,0.00,0.00,0.00,0.00,13.43,0.00,0.00,3.00,20.83,0.00,9.84,2.32,3.42,0.00,0.00,0.14
0,27.33,15.19,0.00,6.44,15.87,0.00,0.00,2.49,23.53,2.56,0.00,5.11,15.00,0.00,13.70,2.04,0.00,0.00,0.00,0.00,13.90,0.00,0.00,3.15,22.62,0.00,13.11,2.62,3.37,0.00,0.00,0.14
0,27.03,15.19,0.00,6.46,16.43,0.00,0.00,2.65,23.78,2.56,0.00,5.15,14.35,0.00,12.33,1.86,0.00,0.00,0.00,0.00,13.66,0.00,0.00,3.09,23.48,0.00,14.75,2.84,3.26,0.00,0.00,0.13
0,27.81,17.72,0.00,7.10,15.97,0.00,0.00,2.53,23.25,2.56,0.00,5.07,14.38,0.00,13.70,1.85,0.00,0.00,0.00,0.00,12.94,0.00,0.00,2.66,22.41,0.00,11.48,2.58,3.28,0.00,0.00,0.13
0,27.84,18.99,0.00,7.02,16.72,0.00,0.00,2.72,23.75,2.56,0.00,5.22,14.74,0.00,16.44,1.94,0.00,0.00,0.00,0.00,12.86,0.00,0.00,2.57,22.49,0.00,11.48,2.54,3.22,0.00,0.00,0.12
0,28.14,18.99,0.00,7.14,17.34,0.00,0.00,2.85,24.29,2.56,0.00,5.29,14.65,0.00,15.07,1.95,0.00,0.00,0.00,0.00,12.84,0.00,0.00,2.47,22.51,0.00,11.48,2.61,3.23,0.00,0.00,0.12
0,26.51,15.19,0.00,6.54,17.62,0.00,0.00,2.93,24.14,2.56,0.00,5.29,14.45,0.00,15.07,1.96,0.00,0.00,0.00,0.00,12.49,0.00,0.00,2.41,22.41,0.00,11.48,2.64,3.27,0.00,0.00,0.13
0,28.13,17.72,2.00,7.37,17.71,0.00,0.00,2.95,24.20,2.56,0.00,5.18,14.37,0.00,16.44,1.87,0.00,0.00,0.00,0.00,12.81,0.00,0.00,2.46,23.10,0.00,11.48,2.68,3.31,0.00,0.00,0.13
0,29.07,20.25,4.00,8.04,17.33,0.00,0.00,2.88,24.72,2.56,0.00,5.35,14.43,0.00,16.44,1.91,0.00,0.00,0.00,0.00,12.34,0.00,0.00,2.33,22.59,0.00,11.48,2.67,3.26,0.00,0.00,0.13
0,28.75,21.52,4.00,7.84,17.37,0.00,0.00,2.86,25.04,2.56,0.00,5.50,14.63,0.00,16.44,1.93,0.00,0.00,0.00,0.00,12.20,0.00,0.00,2.28,22.79,0.00,11.48,2.68,3.31,0.00,0.00,0.13
0,29.21,22.78,4.00,7.94,17.65,0.00,0.00,2.94,25.44,2.56,0.00,5.64,14.96,0.00,17.81,2.02,0.00,0.00,0.00,0.00,12.41,0.00,0.00,2.34,23.92,0.00,14.75,2.89,3.20,0.00,0.00,0.12
0,31.35,25.32,4.00,9.73,17.52,0.00,0.00,2.89,25.32,2.56,0.00,5.56,14.37,0.00,15.07,1.93,0.00,0.00,0.00,0.00,13.23,1.41,0.00,2.64,23.84,0.00,13.11,2.86,3.17,0.00,0.00,0.12
0,33.20,26.58,8.00,11.24,17.29,0.00,0.00,2.81,23.29,0.00,0.00,4.12,14.20,0.00,16.44,1.86,0.00,0.00,0.00,0.00,13.17,1.41,0.00,2.63,23.99,0.00,13.11,2.89,3.15,0.00,0.00,0.13
0,34.23,26.58,8.00,11.32,17.86,0.00,0.00,2.86,22.28,0.00,0.00,3.62,13.70,0.00,15.07,1.80,0.00,0.00,0.00,0.00,12.97,1.41,0.00,2.56,24.66,0.00,14.75,3.03,2.97,0.00,0.00,0.12
0,34.33,26.58,8.00,11.28,17.67,0.00,0.00,2.84,21.78,0.00,0.00,3.58,13.85,0.00,15.07,1.93,0.00,0.00,0.00,0.00,13.01,1.41,0.00,2.50,24.39,0.00,14.75,3.00,2.97,0.00,0.00,0.11
0,35.69,27.85,10.00,12.40,18.07,0.00,0.00,2.98,21.48,0.00,0.00,3.51,13.75,0.00,15.07,1.92,0.00,0.00,0.00,0.00,13.22,1.41,0.00,2.56,23.36,0.00,11.48,2.78,3.05,0.00,0.00,0.12
0,35.69,27.85,10.00,12.39,18.16,0.00,0.00,3.03,22.13,0.00,0.00,3.74,14.30,0.00,16.44,2.00,0.00,0.00,0.00,0.00,13.00,1.41,0.00,2.50,23.48,0.00,13.11,2.80,3.24,0.00,0.00,0.13
0,35.81,27.85,10.00,12.39,18.03,0.00,0.00,2.97,22.45,0.00,0.00,3.88,14.25,0.00,15.07,2.02,0.00,0.00,0.00,0.00,12.41,1.41,0.00,2.18,23.44,0.00,13.11,2.81,3.38,0.00,0.00,0.14
0,36.72,29.11,10.00,12.71,18.41,0.00,0.00,2.99,22.34,0.00,0.00,3.86,14.15,0.00,15.07,2.03,0.00,0.00,0.00,0.00,12.78,1.41,0.00,2.27,23.47,0.00,13.11,2.80,3.30,0.00,0.00,0.13
0,38.72,32.91,12.00,14.46,18.72,0.00,0.00,3.11,22.55,0.00,0.00,4.02,13.91,0.00,15.07,1.97,0.00,0.00,0.00,0.00,12.62,1.41,0.00,2.24,23.00,0.00,13.11,2.79,3.21,0.00,0.00,0.13
0,39.03,34.18,12.00,14.50,19.06,0.00,0.00,3.18,21.83,0.00,0.00,3.84,13.99,0.00,15.07,1.97,0.00,0.00,0.00,0.00,12.19,1.41,0.00,2.03,22.43,0.00,11.48,2.55,3.29,0.00,0.00,0.13
0,39.90,35.44,12.00,14.60,19.17,0.00,0.00,3.29,22.46,0.00,0.00,4.00,14.13,0.00,17.81,1.93,0.00,0.00,0.00,0.00,12.57,1.41,0.00,2.09,21.93,0.00,11.48,2.46,3.41,0.00,0.00,0.14
0,39.65,32.91,14.00,15.52,18.29,0.00,0.00,3.00,22.85,0.00,0.00,4.21,13.92,0.00,16.44,1.93,0.00,0.00,0.00,0.00,12.14,1.41,0.00,1.99,20.42,0.00,8.20,2.18,3.45,0.00,0.00,0.14
0,39.29,32.91,14.00,15.35,17.86,0.00,0.00,2.87,23.12,0.00,0.00,4.33,14.04,0.00,16.44,1.92,0.00,0.00,0.00,0.00,12.40,1.41,0.00,2.20,19.92,0.00,8.20,2.08,3.37,0.00,0.00,0.13
0,38.90,31.65,14.00,15.22,18.10,0.00,0.00,2.91,22.95,0.00,0.00,4.19,14.00,0.00,15.07,1.89,0.00,0.00,0.00,0.00,12.45,1.41,0.00,2.24,19.84,0.00,8.20,2.11,3.27,0.00,0.00,0.13
0,38.67,29.11,14.00,14.90,18.18,0.00,0.00,2.88,22.54,0.00,0.00,4.01,13.86,0.00,13.70,1.90,0.00,0.00,0.00,0.00,13.51,1.41,0.00,2.95,20.93,0.00,9.84,2.41,3.28,0.00,0.00,0.13
0,39.57,30.38,14.00,15.24,17.70,0.00,0.00,2.92,22.42,0.00,0.00,4.04,13.87,0.00,13.70,1.89,0.00,0.00,0.00,0.00,13.81,1.41,0.00,3.04,20.91,0.00,9.84,2.40,3.41,0.00,0.00,0.14
0,41.12,31.65,14.00,15.89,17.28,0.00,0.00,2.82,22.82,0.00,0.00,4.51,13.86,0.00,15.07,1.91,0.00,0.00,0.00,0.00,13.87,1.41,0.00,3.05,21.44,0.00,9.84,2.51,3.44,0.00,0.00,0.14
0,39.68,29.11,12.00,15.12,17.27,0.00,0.00,2.80,24.22,2.56,0.00,5.35,13.71,0.00,12.33,1.86,0.00,0.00,0.00,0.00,13.93,1.41,0.00,3.14,21.55,0.00,11.48,2.58,3.36,0.00,0.00,0.13
0,39.64,29.11,10.00,14.80,17.20,0.00,0.00,2.75,23.74,2.56,0.00,5.35,13.63,0.00,12.33,1.89,0.00,0.00,0.00,0.00,13.94,1.41,0.00,3.11,21.65,0.00,11.48,2.59,3.44,0.00,0.00,0.14
0,41.17,31.65,10.00,15.42,17.54,0.00,0.00,2.91,24.17,2.56,0.00,5.33,14.25,0.00,15.07,2.04,0.00,0.00,0.00,0.00,14.45,1.41,0.00,3.45,21.54,0.00,11.48,2.59,3.51,0.00,0.00,0.15
0,40.40,29.11,10.00,15.18,17.01,0.00,0.00,2.85,24.01,2.56,0.00,5.28,14.04,0.00,15.07,1.98,0.00,0.00,0.00,0.00,14.58,1.41,0.00,3.46,20.72,0.00,8.20,2.47,3.60,0.00,0.00,0.15
0,38.26,26.58,10.00,13.65,17.54,0.00,0.00,3.03,24.92,2.56,0.00,5.76,14.21,0.00,15.07,2.01,0.00,0.00,0.00,0.00,14.15,0.00,0.00,3.27,20.61,0.00,8.20,2.45,3.69,0.00,0.00,0.15
0,37.43,26.58,8.00,12.67,17.49,0.00,0.00,3.01,25.56,2.56,0.00,5.87,13.96,0.00,13.70,1.92,0.00,0.00,0.00,0.00,14.27,0.00,0.00,3.26,20.69,0.00,8.20,2.44,3.55,0.00,0.00,0.14
0,36.39,26.58,8.00,12.50,17.15,0.00,0.00,2.90,25.61,2.56,0.00,5.81,14.39,0.00,13.70,2.02,0.00,0.00,0.00,0.00,14.39,0.00,0.00,3.30,19.77,0.00,6.56,2.27,3.73,0.00,0.00,0.15
0,38.33,30.38,14.00,13.67,17.24,0.00,0.00,2.96,26.13,2.56,0.00,6.10,14.16,0.00,12.33,1.99,0.00,0.00,0.00,0.00,14.66,0.00,0.00,3.46,20.24,0.00,6.56,2.30,3.72,0.00,0.00,0.15
0,37.37,30.38,12.00,12.88,17.39,0.00,0.00,3.07,26.34,2.56,0.00,6.29,14.69,0.00,13.70,2.12,0.00,0.00,0.00,0.00,14.66,0.00,0.00,3.44,20.48,0.00,6.56,2.35,3.52,0.00,0.00,0.14
0,38.42,31.65,14.00,13.86,17.43,0.00,0.00,3.07,27.10,2.56,0.00,6.72,15.29,0.00,15.07,2.22,0.00,0.00,0.00,0.00,15.00,0.00,0.00,3.50,20.40,0.00,6.56,2.36,3.42,0.00,0.00,0.13
0,39.97,35.44,16.00,14.85,18.44,0.00,0.00,3.28,26.47,2.56,0.00,6.52,14.97,0.00,15.07,2.10,0.00,0.00,0.00,0.00,14.93,0.00,0.00,3.47,20.47,0.00,6.56,2.31,3.35,0.00,0.00,0.12
0,39.57,35.44,16.00,15.10,18.45,0.00,0.00,3.35,26.45,2.56,0.00,6.61,15.19,0.00,15.07,2.04,0.00,0.00,0.00,0.00,14.53,0.00,0.00,3.41,20.60,0.00,8.20,2.31,3.33,0.00,0.00,0.12
0,38.25,32.91,14.00,13.74,17.89,0.00,0.00,3.11,26.50,2.56,0.00,6.67,15.84,0.00,16.44,2.27,0.00,0.00,0.00,0.00,14.70,0.00,0.00,3.44,20.99,0.00,8.20,2.35,3.45,0.00,0.00,0.12
0,37.60,31.65,14.00,13.39,17.38,0.00,0.00,3.02,27.42,2.56,0.00,6.95,15.92,0.00,16.44,2.29,0.00,0.00,0.00,0.00,15.25,0.00,0.00,3.58,21.20,0.00,9.84,2.39,3.32,0.00,0.00,0.12
0,38.85,35.44,14.00,14.02,17.22,0.00,0.00,2.92,27.11,2.56,0.00,7.09,15.89,0.00,13.70,2.33,0.00,0.00,0.00,0.00,15.21,0.00,0.00,3.54,21.30,0.00,9.84,2.43,3.17,0.00,0.00,0.12
0,37.08,32.91,12.00,12.71,17.34,0.00,0.00,2.91,27.14,2.56,0.00,7.07,16.06,0.00,15.07,2.37,0.00,0.00,0.00,0.00,15.23,0.00,0.00,3.55,21.60,0.00,9.84,2.48,3.38,0.00,0.00,0.13
0,37.11,32.91,12.00,12.70,17.73,0.00,0.00,2.94,28.56,2.56,0.00,7.77,16.49,0.00,16.44,2.50,0.00,0.00,0.00,0.00,15.09,0.00,0.00,3.42,21.03,0.00,8.20,2.39,3.49,0.00,0.00,0.14
0,37.23,32.91,12.00,12.64,17.90,0.00,0.00,3.05,28.96,2.56,0.00,7.97,16.62,0.00,17.81,2.53,0.00,0.00,0.00,0.00,15.03,0.00,0.00,3.33,21.50,0.00,8.20,2.44,3.56,0.00,0.00,0.14
0,36.10,31.65,12.00,12.26,17.50,0.00,0.00,2.92,29.49,2.56,0.00,8.36,16.28,0.00,17.81,2.45,0.00,0.00,0.00,0.00,14.22,0.00,0.00,2.92,20.67,0.00,6.56,2.26,3.49,0.00,0.00,0.14
0,35.69,32.91,12.00,12.22,17.09,0.00,0.00,2.87,30.51,2.56,0.00,8.69,16.07,0.00,16.44,2.41,0.00,0.00,0.00,0.00,14.04,0.00,0.00,2.67,19.86,0.00,6.56,2.05,3.50,0.00,0.00,0.14
0,34.09,30.38,12.00,11.37,18.27,0.00,0.00,3.23,30.00,2.56,0.00,8.25,16.02,0.00,15.07,2.39,0.00,0.00,0.00,0.00,13.68,0.00,0.00,2.51,19.85,0.00,6.56,2.00,3.38,0.00,0.00,0.14
0,34.54,30.38,12.00,11.42,17.86,0.00,0.00,3.13,29.06,0.00,0.00,7.59,16.16,0.00,15.07,2.42,0.00,0.00,0.00,0.00,14.05,0.00,0.00,2.91,19.38,0.00,4.92,1.85,3.43,0.00,0.00,0.14
0,33.80,27.85,12.00,11.19,18.27,0.00,0.00,3.25,28.95,0.00,0.00,7.54,16.03,0.00,15.07,2.37,0.00,0.00,0.00,0.00,13.90,0.00,0.00,2.90,18.68,0.00,4.92,1.77,3.51,0.00,0.00,0.15
0,32.45,24.05,12.00,10.77,17.62,0.00,0.00,3.11,28.50,0.00,0.00,7.54,15.25,0.00,12.33,2.17,0.00,0.00,0.00,0.00,13.55,0.00,0.00,2.64,18.95,0.00,4.92,1.74,3.46,0.00,0.00,0.14
0,32.87,25.32,12.00,10.70,18.16,0.00,0.00,3.23,28.81,0.00,0.00,7.79,15.52,0.00,12.33,2.35,0.00,0.00,0.00,0.00,13.37,0.00,0.00,2.56,19.04,0.00,4.92,1.76,3.48,0.00,0.00,0.14
0,33.77,26.58,12.00,11.27,17.75,0.00,0.00,3.06,28.44,0.00,0.00,7.60,15.31,0.00,12.33,2.32,0.00,0.00,0.00,0.00,12.92,0.00,0.00,2.48,18.70,0.00,4.92,1.65,3.43,0.00,0.00,0.14
0,31.87,24.05,10.00,10.52,17.32,0.00,0.00,2.94,28.43,0.00,0.00,7.77,15.22,0.00,12.33,2.30,0.00,0.00,0.00,0.00,13.20,0.00,0.00,2.53,18.37,0.00,4.92,1.63,3.68,0.00,0.00,0.16
0,32.54,25.32,10.00,10.86,16.97,0.00,0.00,2.93,28.54,0.00,0.00,7.96,15.43,0.00,12.33,2.37,0.00,0.00,0.00,0.00,13.10,0.00,0.00,2.52,18.41,0.00,4.92,1.68,3.48,0.00,0.00,0.15
0,30.57,22.78,4.00,9.96,16.71,0.00,0.00,2.83,28.29,0.00,0.00,7.68,15.54,0.00,15.07,2.33,0.00,0.00,0.00,0.00,12.56,0.00,0.00,2.35,18.21,0.00,4.92,1.67,3.60,0.00,0.00,0.16
0,30.46,20.25,4.00,9.61,16.19,0.00,0.00,2.68,28.16,0.00,0.00,7.73,14.97,0.00,13.70,2.18,0.00,0.00,0.00,0.00,13.03,0.00,0.00,2.58,18.14,0.00,4.92,1.65,3.70,0.00,0.00,0.16
0,29.55,20.25,2.00,8.61,16.54,0.00,0.00,2.64,27.48,0.00,0.00,7.54,14.50,0.00,13.70,2.08,0.00,0.00,0.00,0.00,13.13,0.00,0.00,2.69,17.69,0.00,3.28,1.59,3.76,0.00,0.00,0.16
0,29.06,18.99,2.00,8.27,16.29,0.00,0.00,2.60,28.15,0.00,0.00,8.01,14.50,0.00,12.33,2.15,0.00,0.00,0.00,0.00,12.95,0.00,0.00,2.61,17.45,0.00,3.28,1.56,3.79,0.00,0.00,0.17
0,27.93,17.72,0.00,7.20,15.68,0.00,0.00,2.36,28.16,0.00,0.00,8.30,14.87,0.00,15.07,2.31,0.00,0.00,0.00,0.00,13.15,0.00,0.00,2.69,17.09,0.00,1.64,1.55,3.86,0.00,0.00,0.17
0,26.61,15.19,0.00,6.60,15.22,0.00,0.00,2.33,28.17,0.00,0.00,8.15,14.42,0.00,13.70,2.11,0.00,0.00,0.00,0.00,13.47,0.00,0.00,2.83,17.05,0.00,1.64,1.56,3.78,0.00,0.00,0.16
0,26.38,15.19,0.00,6.58,15.50,0.00,0.00,2.35,28.27,0.00,0.00,8.05,14.48,0.00,13.70,2.15,0.00,0.00,0.00,0.00,13.26,0.00,0.00,2.92,16.88,0.00,0.00,1.42,3.77,0.00,0.00,0.16
0,25.16,12.66,0.00,6.19,15.90,0.00,0.00,2.49,27.77,0.00,0.00,7.84,14.48,0.00,13.70,2.09,0.00,0.00,0.00,0.00,13.90,0.00,0.00,3.06,17.18,0.00,0.00,1.49,3.78,0.00,0.00,0.16
0,24.99,12.66,0.00,5.75,15.99,0.00,0.00,2.56,27.20,0.00,0.00,7.61,14.19,0.00,12.33,1.99,0.00,0.00,0.00,0.00,13.67,0.00,0.00,3.00,17.57,0.00,0.00,1.50,3.66,0.00,0.00,0.15
0,26.01,13.92,0.00,6.00,15.81,0.00,0.00,2.58,25.63,0.00,0.00,7.05,13.53,0.00,10.96,1.84,0.00,0.00,0.00,0.00,14.22,0.00,0.00,3.12,17.88,0.00,0.00,1.52,3.53,0.00,0.00,0.14
0,26.13,13.92,0.00,6.09,15.28,0.00,0.00,2.35,25.26,0.00,0.00,6.77,13.53,0.00,10.96,1.87,0.00,0.00,0.00,0.00,13.84,0.00,0.00,3.05,17.60,0.00,0.00,1.42,3.43,0.00,0.00,0.13
0,26.89,15.19,0.00,6.37,16.26,0.00,0.00,2.75,24.74,0.00,0.00,6.51,13.48,0.00,9.59,1.88,0.00,0.00,0.00,0.00,14.34,1.41,0.00,3.12,17.81,0.00,0.00,1.48,3.54,0.00,0.00,0.14
0,26.19,13.92,0.00,6.14,15.99,0.00,0.00,2.67,24.44,0.00,0.00,6.21,13.67,0.00,9.59,1.89,0.00,0.00,0.00,0.00,16.59,4.23,0.00,4.55,17.83,0.00,0.00,1.48,3.48,0.00,0.00,0.14
0,26.82,15.19,0.00,6.32,14.70,0.00,0.00,2.21,24.55,0.00,0.00,6.16,13.82,0.00,10.96,1.87,0.00,0.00,0.00,0.00,17.34,5.63,0.00,5.13,17.76,0.00,0.00,1.50,3.46,0.00,0.00,0.14
0,26.46,15.19,0.00,6.30,14.96,0.00,0.00,2.28,24.31,0.00,0.00,6.09,14.01,0.00,10.96,1.93,0.00,0.00,0.00,0.00,17.63,5.63,0.00,5.04,17.81,0.00,0.00,1.52,3.39,0.00,0.00,0.13
0,26.91,16.46,0.00,6.31,14.85,0.00,0.00,2.30,24.80,0.00,0.00,6.33,14.49,0.00,12.33,2.00,0.00,0.00,0.00,0.00,18.28,5.63,0.00,5.16,18.13,0.00,0.00,1.56,3.33,0.00,0.00,0.12
0,28.15,16.46,0.00,6.78,14.93,0.00,0.00,2.36,24.25,0.00,0.00,6.03,14.39,0.00,12.33,2.01,0.00,0.00,0.00,0.00,19.40,5.63,0.00,5.57,18.30,0.00,0.00,1.68,3.31,0.00,0.00,0.12
0,27.57,16.46,0.00,7.28,14.58,0.00,0.00,2.24,23.65,0.00,0.00,5.67,14.25,0.00,12.33,1.85,0.00,0.00,0.00,0.00,19.83,5.63,0.00,5.68,17.86,0.00,0.00,1.61,3.27,0.00,0.00,0.12
0,27.88,17.72,0.00,7.46,14.58,0.00,0.00,2.22,23.21,0.00,0.00,5.57,14.82,0.00,15.07,1.96,0.00,0.00,0.00,0.00,20.55,5.63,0.00,5.83,18.43,0.00,1.64,1.71,3.33,0.00,0.00,0.12
0,27.22,16.46,0.00,6.75,15.89,0.00,0.00,2.64,23.35,0.00,0.00,5.50,14.71,0.00,15.07,1.96,0.00,0.00,0.00,0.00,20.42,5.63,0.00,5.89,18.33,0.00,1.64,1.68,3.10,0.00,0.00,0.10
0,28.05,17.72,0.00,6.92,16.05,0.00,0.00,2.66,23.40,0.00,0.00,5.19,14.73,0.00,16.44,1.89,0.00,0.00,0.00,0.00,21.15,5.63,0.00,6.24,18.56,0.00,1.64,1.73,3.06,0.00,0.00,0.09
0,28.36,17.72,0.00,7.11,16.69,0.00,0.00,2.74,23.22,0.00,0.00,5.14,14.56,0.00,15.07,1.86,0.00,0.00,0.00,0.00,21.45,5.63,0.00,6.46,18.45,0.00,1.64,1.75,3.11,0.00,0.00,0.10
0,29.62,20.25,2.00,8.39,17.00,0.00,0.00,2.80,23.38,0.00,0.00,5.16,14.77,0.00,16.44,1.99,0.00,0.00,0.00,0.00,21.46,5.63,0.00,6.39,18.66,0.00,1.64,1.75,3.06,0.00,0.00,0.10
0,29.15,18.99,2.00,8.33,16.18,0.00,0.00,2.71,23.28,0.00,0.00,5.08,15.07,0.00,16.44,2.08,0.00,0.00,0.00,0.00,21.07,5.63,0.00,6.26,18.83,0.00,1.64,1.76,3.17,0.00,0.00,0.10
0,29.44,20.25,2.00,8.59,16.37,0.00,0.00,2.71,22.75,0.00,0.00,4.56,15.60,0.00,19.18,2.23,0.00,0.00,0.00,0.00,21.80,5.63,0.00,6.49,19.08,0.00,3.28,1.79,3.30,0.00,0.00,0.12
0,29.58,18.99,2.00,8.64,16.26,0.00,0.00,2.73,22.60,0.00,0.00,4.17,14.81,0.00,16.44,2.03,0.00,0.00,0.00,0.00,21.83,5.63,0.00,6.53,18.98,0.00,3.28,1.78,3.29,0.00,0.00,0.12
0,29.90,20.25,2.00,8.88,16.55,0.00,0.00,2.85,23.39,0.00,0.00,4.68,14.61,0.00,16.44,2.03,0.00,0.00,0.00,0.00,21.49,5.63,0.00,6.47,18.52,0.00,3.28,1.71,3.32,0.00,0.00,0.12
0,30.67,22.78,2.00,9.46,16.97,0.00,0.00,2.93,23.36,0.00,0.00,4.89,14.77,0.00,16.44,2.14,0.00,0.00,0.00,0.00,21.32,5.63,0.00,6.29,19.18,0.00,6.56,1.95,3.21,0.00,0.00,0.12
0,31.13,22.78,2.00,9.54,16.89,0.00,0.00,2.88,24.08,0.00,0.00,5.19,15.07,0.00,16.44,2.29,0.00,0.00,0.00,0.00,21.39,5.63,0.00,6.25,18.73,0.00,6.56,1.85,3.36,0.00,0.00,0.13
0,30.62,21.52,2.00,9.51,16.81,0.00,0.00,2.87,24.02,0.00,0.00,5.13,15.16,0.00,16.44,2.29,0.00,0.00,0.00,0.00,22.34,5.63,0.00,6.58,19.31,0.00,6.56,1.93,3.31,0.00,0.00,0.13
0,30.49,22.78,2.00,9.61,17.67,0.00,0.00,3.19,24.39,0.00,0.00,5.29,15.27,0.00,16.44,2.35,0.00,0.00,0.00,0.00,22.10,5.63,0.00,6.54,19.09,0.00,6.56,1.94,3.41,0.00,0.00,0.13
0,30.13,21.52,2.00,9.54,18.26,0.00,0.00,3.43,24.30,0.00,0.00,5.33,15.17,0.00,15.07,2.32,0.00,0.00,0.00,0.00,22.35,5.63,0.00,6.58,19.28,0.00,8.20,2.00,3.45,0.00,0.00,0.13
0,29.80,21.52,2.00,9.25,16.98,0.00,0.00,2.99,24.86,0.00,0.00,5.36,15.17,0.00,16.44,2.33,0.00,0.00,0.00,0.00,22.84,5.63,0.00,6.97,19.30,0.00,8.20,1.96,3.43,0.00,0.00,0.13
0,31.39,24.05,2.00,9.92,17.32,0.00,0.00,3.13,24.30,0.00,0.00,5.19,15.11,0.00,16.44,2.32,0.00,0.00,0.00,0.00,21.84,2.82,0.00,6.26,19.59,0.00,8.20,1.98,3.45,0.00,0.00,0.13
0,31.75,22.78,2.00,10.16,17.45,0.00,0.00,3.13,24.41,0.00,0.00,5.29,15.15,0.00,17.81,2.37,0.00,0.00,0.00,0.00,20.29,0.00,0.00,5.15,20.13,0.00,9.84,2.03,3.52,0.00,0.00,0.13
0,33.07,26.58,2.00,10.66,18.32,0.00,0.00,3.36,24.46,0.00,0.00,5.34,15.48,0.00,20.55,2.40,0.00,0.00,0.00,0.00,19.65,0.00,0.00,5.09,20.15,0.00,11.48,2.06,3.52,0.00,0.00,0.13
0,33.68,27.85,4.00,11.31,18.04,0.00,0.00,3.38,24.16,0.00,0.00,5.04,15.01,0.00,19.18,2.34,0.00,0.00,0.00,0.00,19.25,0.00,0.00,4.91,19.94,0.00,11.48,2.05,3.60,0.00,0.00,0.14
0,33.42,27.85,4.00,11.21,18.41,0.00,0.00,3.41,24.05,0.00,0.00,5.07,14.94,0.00,19.18,2.39,0.00,0.00,0.00,0.00,19.12,1.41,0.00,4.90,19.78,0.00,11.48,1.95,3.53,0.00,0.00,0.13
0,32.97,26.58,4.00,10.45,18.47,0.00,0.00,3.41,25.24,0.00,0.00,5.79,15.24,0.00,20.55,2.47,0.00,0.00,0.00,0.00,18.73,1.41,0.00,4.84,20.11,0.00,11.48,2.02,3.53,0.00,0.00,0.14
0,34.14,27.85,8.00,11.10,18.55,0.00,0.00,3.48,25.31,0.00,0.00,5.86,14.80,0.00,17.81,2.38,0.00,0.00,0.00,0.00,19.03,2.82,0.00,5.29,19.83,0.00,9.84,1.95,3.42,0.00,0.00,0.13
0,34.42,30.38,8.00,11.20,17.51,0.00,0.00,3.09,26.14,0.00,0.00,6.53,14.77,0.00,17.81,2.40,0.00,0.00,0.00,0.00,19.04,2.82,0.00,5.44,19.59,0.00,9.84,1.94,3.33,0.00,0.00,0.13
0,36.21,32.91,10.00,12.47,17.04,0.00,0.00,3.01,25.66,0.00,0.00,6.72,14.95,0.00,17.81,2.50,0.00,0.00,0.00,0.00,19.60,4.23,0.00,5.86,19.51,0.00,9.84,1.95,3.41,0.00,0.00,0.13
0,36.28,31.65,10.00,12.69,16.50,0.00,0.00,2.96,26.49,0.00,0.00,7.08,15.24,0.00,17.81,2.64,0.00,0.00,0.00,0.00,19.14,4.23,0.00,5.57,19.74,0.00,9.84,1.93,3.28,0.00,0.00,0.13
0,34.85,29.11,8.00,11.53,16.39,0.00,0.00,2.96,26.72,0.00,0.00,7.10,15.32,0.00,16.44,2.60,0.00,0.00,0.00,0.00,18.94,4.23,0.00,5.50,19.63,0.00,9.84,1.91,3.29,0.00,0.00,0.13
0,36.03,29.11,8.00,11.78,16.44,0.00,0.00,2.95,26.79,0.00,0.00,7.11,15.18,0.00,15.07,2.51,0.00,0.00,0.00,0.00,19.60,4.23,0.00,5.77,19.44,0.00,9.84,1.89,3.08,0.00,0.00,0.11
0,35.50,27.85,8.00,11.60,16.25,0.00,0.00,2.95,26.81,0.00,0.00,7.02,14.36,0.00,12.33,2.25,0.00,0.00,0.00,0.00,19.36,4.23,0.00,5.75,18.90,0.00,8.20,1.84,2.92,0.00,0.00,0.10
0,35.82,27.85,8.00,11.59,16.41,0.00,0.00,2.97,26.91,0.00,0.00,7.19,14.67,0.00,12.33,2.33,0.00,0.00,0.00,0.00,19.10,4.23,0.00,5.56,18.66,0.00,8.20,1.81,2.94,0.00,0.00,0.10
0,36.76,30.38,8.00,11.84,16.25,0.00,0.00,2.87,26.60,0.00,0.00,6.89,15.06,0.00,13.70,2.35,0.00,0.00,0.00,0.00,19.45,4.23,0.00,5.61,18.94,0.00,8.20,1.82,3.02,0.00,0.00,0.10
0,37.68,30.38,8.00,11.95,15.99,0.00,0.00,2.81,26.00,0.00,0.00,6.80,15.02,0.00,13.70,2.37,0.00,0.00,0.00,0.00,19.11,4.23,0.00,5.51,18.59,0.00,4.92,1.63,3.25,0.00,0.00,0.12
0,40.78,32.91,12.00,15.57,16.23,0.00,0.00,2.97,30.69,10.26,0.00,12.37,15.65,0.00,17.81,2.72,0.00,0.00,0.00,0.00,19.69,4.23,0.00,5.96,20.12,0.00,8.20,2.01,5.36,0.00,0.00,1.25
0,43.60,36.71,16.00,17.91,16.39,0.00,0.00,3.00,32.21,10.26,0.00,13.44,16.23,0.00,19.18,2.95,0.00,0.00,0.00,0.00,18.97,4.23,0.00,5.72,20.73,0.00,9.84,2.18,5.72,0.00,0.00,1.39
0,46.41,41.77,20.00,19.82,16.22,0.00,0.00,3.01,37.45,17.95,0.00,16.56,16.95,0.00,19.18,3.20,0.00,0.00,0.00,0.00,19.48,4.23,0.00,5.78,21.20,0.00,11.48,2.22,7.30,0.00,0.00,2.09
0,48.07,43.04,22.00,21.98,15.57,0.00,0.00,2.57,42.87,23.08,0.00,25.89,19.00,2.44,24.66,3.74,0.00,0.00,0.00,0.00,20.23,4.23,0.00,6.04,22.63,3.12,14.75,2.68,8.94,0.00,0.00,3.09
0,51.67,46.84,24.00,24.56,15.71,0.00,0.00,2.62,46.17,25.64,0.00,33.22,20.52,4.88,24.66,5.94,0.00,0.00,0.00,0.00,21.14,5.63,1.96,6.99,24.46,3.12,21.31,3.23,10.11,0.00,0.00,4.51
0,52.05,46.84,24.00,24.89,15.76,0.00,0.00,2.60,48.59,33.33,0.00,34.60,20.89,4.88,24.66,6.23,0.00,0.00,0.00,0.00,21.89,7.04,1.96,7.31,24.72,3.12,24.59,3.30,11.38,0.00,0.00,4.99
1,53.31,49.37,24.00,25.51,15.88,0.00,0.00,2.75,52.72,41.03,0.00,37.60,21.11,4.88,24.66,6.43,0.00,0.00,0.00,0.00,22.33,8.45,1.96,7.77,25.22,3.12,26.23,3.57,13.20,0.00,0.00,5.61
1,56.03,51.90,28.00,28.75,16.29,0.00,0.00,2.88,57.81,46.15,0.00,44.78,22.72,4.88,26.03,7.14,0.00,0.00,0.00,0.00,22.46,8.45,1.96,7.87,27.13,6.25,26.23,4.38,14.91,0.00,0.00,6.49
1,57.21,50.63,30.00,29.56,16.56,0.00,0.00,2.94,63.21,53.85,0.00,50.41,23.21,4.88,27.40,7.28,0.00,0.00,0.00,0.00,23.45,11.27,1.96,8.60,28.91,9.38,31.15,5.07,17.15,0.00,0.00,7.65
1,60.44,55.70,34.00,32.08,17.07,0.00,0.00,3.29,70.42,58.97,0.00,64.64,23.89,4.88,28.77,7.57,0.00,0.00,0.00,0.00,23.96,12.68,1.96,9.01,29.71,9.38,32.79,5.36,19.55,2.56,0.00,9.68
1,63.07,59.49,36.00,35.28,17.00,0.00,0.00,3.28,71.84,64.10,0.00,66.33,24.41,4.88,27.40,7.85,0.00,0.00,0.00,0.00,25.50,14.08,3.92,10.58,30.74,9.38,36.07,5.53,20.57,2.56,0.00,9.88
1,63.69,62.03,34.00,35.70,17.09,0.00,0.00,3.27,73.24,64.10,0.00,67.35,24.86,4.88,30.14,8.22,0.00,0.00,0.00,0.00,25.98,12.68,3.92,10.76,31.34,9.38,39.34,5.59,22.26,2.56,0.00,10.95
1,63.91,60.76,32.00,37.22,16.99,0.00,0.00,3.23,74.33,66.67,0.00,68.05,25.37,4.88,31.51,8.43,0.00,0.00,0.00,0.00,25.82,12.68,3.92,10.67,32.96,9.38,40.98,5.94,22.80,2.56,0.00,11.04
1,65.25,62.03,36.00,38.16,17.39,0.00,0.00,3.27,76.13,66.67,0.00,68.44,26.16,4.88,32.88,8.96,0.00,0.00,0.00,0.00,25.62,12.68,3.92,10.60,34.35,9.38,42.62,6.78,23.70,2.56,0.00,11.23
1,65.07,62.03,34.00,37.79,18.38,0.00,0.00,3.65,76.95,66.67,0.00,68.74,26.70,4.88,35.62,9.30,0.00,0.00,0.00,0.00,27.13,14.08,5.88,12.23,36.11,9.38,45.90,7.49,24.62,2.56,0.00,11.50
1,66.53,68.35,38.00,38.40,19.45,0.00,0.00,3.96,80.01,71.79,0.00,70.95,27.21,4.88,36.99,9.66,0.00,0.00,0.00,0.00,28.24,14.08,5.88,13.33,36.54,9.38,45.90,7.56,25.74,2.56,0.00,11.81
1,69.73,70.89,44.00,42.19,19.67,0.00,0.00,4.05,81.15,71.79,0.00,71.83,28.22,4.88,38.36,10.15,0.00,0.00,0.00,0.00,29.11,18.31,5.88,14.01,36.82,9.38,45.90,7.62,26.32,2.56,0.00,11.88
1,72.37,73.42,46.00,44.19,20.20,0.00,0.00,4.13,83.08,74.36,0.00,73.19,29.54,4.88,39.73,10.80,0.00,0.00,0.00,0.00,29.35,18.31,5.88,14.26,37.81,9.38,47.54,7.79,26.78,2.56,0.00,11.96
1,74.05,74.68,46.00,45.34,20.59,0.00,0.00,4.16,83.26,74.36,0.00,73.44,29.61,4.88,41.10,10.91,0.00,0.00,0.00,0.00,30.05,18.31,5.88,14.50,38.89,9.38,49.18,7.94,26.93,2.56,0.00,12.03
1,75.55,75.95,50.00,47.53,20.31,0.00,0.00,4.10,83.83,74.36,0.00,73.61,29.76,4.88,41.10,11.05,0.00,0.00,0.00,0.00,30.34,18.31,5.88,14.60,39.24,9.38,49.18,7.97,27.42,2.56,0.00,12.08
1,76.37,79.75,50.00,48.13,20.60,0.00,0.00,4.15,87.03,76.92,0.00,76.65,29.93,4.88,41.10,11.12,0.00,0.00,0.00,0.00,31.15,18.31,5.88,14.91,39.41,9.38,52.46,8.00,28.48,2.56,0.00,12.37
1,74.04,75.95,46.00,46.16,20.29,0.00,0.00,4.06,83.65,69.23,0.00,74.64,29.46,4.88,38.36,11.08,0.00,0.00,0.00,0.00,31.72,19.72,5.88,15.59,37.67,9.38,49.18,7.65,27.16,2.56,0.00,11.82
1,72.17,75.95,42.00,43.76,20.05,0.00,0.00,3.97,84.10,71.79,0.00,73.68,29.29,4.88,38.36,10.97,0.00,0.00,0.00,0.00,33.69,23.94,7.84,16.50,37.86,9.38,49.18,7.85,27.13,2.56,0.00,11.36
1,70.73,73.42,40.00,42.50,19.77,0.00,0.00,3.87,81.50,64.10,0.00,71.67,28.79,4.88,39.73,10.77,0.00,0.00,0.00,0.00,33.40,23.94,7.84,16.47,37.36,9.38,49.18,7.62,25.76,2.56,0.00,10.64
1,67.98,68.35,36.00,39.70,19.30,0.00,0.00,3.80,78.66,64.10,0.00,63.97,27.96,4.88,35.62,10.37,0.00,0.00,0.00,0.00,33.49,25.35,7.84,16.56,36.11,6.25,45.90,7.18,24.82,2.56,0.00,9.73
1,67.17,68.35,34.00,38.37,19.85,0.00,0.00,3.94,74.92,58.97,0.00,57.93,26.00,0.00,35.62,8.48,0.00,0.00,0.00,0.00,33.12,25.35,5.88,15.84,35.71,6.25,42.62,7.00,23.35,2.56,0.00,8.41
1,65.30,63.29,34.00,36.74,19.44,0.00,0.00,3.89,72.11,53.85,0.00,55.54,25.14,0.00,35.62,7.94,0.00,0.00,0.00,0.00,32.41,23.94,5.88,15.44,34.30,6.25,37.70,6.73,22.48,2.56,0.00,7.90
1,64.26,62.03,34.00,36.20,19.35,0.00,0.00,3.84,68.96,46.15,0.00,53.99,24.82,0.00,32.88,7.74,0.00,0.00,0.00,0.00,32.15,23.94,5.88,15.30,33.21,6.25,36.07,6.42,21.15,2.56,0.00,7.46
1,61.14,58.23,30.00,33.68,18.23,0.00,0.00,3.53,64.92,41.03,0.00,47.22,23.22,0.00,30.14,7.05,0.00,0.00,0.00,0.00,31.56,22.54,5.88,15.03,31.75,3.12,36.07,5.59,19.96,2.56,0.00,6.64
1,60.42,55.70,28.00,32.81,17.75,0.00,0.00,3.23,60.73,35.90,0.00,43.22,22.91,0.00,30.14,7.03,0.00,0.00,0.00,0.00,32.08,23.94,5.88,15.13,30.48,0.00,32.79,5.16,18.73,2.56,0.00,6.03
1,56.71,51.90,22.00,29.74,17.03,0.00,0.00,2.97,52.19,25.64,0.00,28.90,22.42,0.00,30.14,6.76,0.00,0.00,0.00,0.00,31.48,21.13,5.88,14.58,28.61,0.00,29.51,4.62,15.82,0.00,0.00,4.02
1,54.69,50.63,20.00,26.92,16.44,0.00,0.00,2.72,50.57,20.51,0.00,25.18,21.43,0.00,28.77,6.36,0.00,0.00,0.00,0.00,29.36,16.90,3.92,12.59,27.89,0.00,26.23,4.48,14.97,0.00,0.00,3.28
1,54.31,49.37,20.00,26.65,16.67,0.00,0.00,2.75,50.70,20.51,0.00,25.40,20.82,0.00,26.03,6.07,0.00,0.00,0.00,0.00,29.12,16.90,3.92,12.41,28.00,0.00,24.59,4.53,13.62,0.00,0.00,2.35
1,54.81,50.63,20.00,26.04,16.64,0.00,0.00,2.73,48.82,17.95,0.00,24.60,20.72,0.00,24.66,5.97,0.00,0.00,0.00,0.00,28.79,16.90,3.92,12.03,27.69,0.00,24.59,4.49,13.18,0.00,0.00,2.22
1,53.00,48.10,16.00,24.92,16.71,0.00,0.00,2.79,48.12,17.95,0.00,24.47,20.01,0.00,21.92,5.52,0.00,0.00,0.00,0.00,28.80,16.90,3.92,12.22,26.96,0.00,24.59,4.01,12.91,0.00,0.00,2.13
1,51.52,45.57,16.00,23.59,15.77,0.00,0.00,2.57,48.30,17.95,0.00,24.37,19.19,0.00,19.18,5.01,0.00,0.00,0.00,0.00,29.19,18.31,3.92,12.49,24.69,0.00,21.31,3.02,12.19,0.00,0.00,1.91
1,50.47,41.77,14.00,22.99,15.31,0.00,0.00,2.43,46.11,15.38,0.00,22.76,18.06,0.00,17.81,4.57,0.00,0.00,0.00,0.00,27.59,16.90,1.96,9.90,26.22,0.00,24.59,3.21,11.44,0.00,0.00,1.66
1,47.58,39.24,8.00,19.71,14.49,0.00,0.00,2.16,45.17,15.38,0.00,22.44,17.01,0.00,16.44,4.13,0.00,0.00,0.00,0.00,26.76,15.49,1.96,9.44,26.19,0.00,26.23,3.27,11.28,0.00,0.00,1.62
1,45.97,37.97,6.00,19.23,14.73,0.00,0.00,2.26,44.03,12.82,0.00,21.70,16.65,0.00,17.81,3.91,0.00,0.00,0.00,0.00,26.58,15.49,1.96,8.97,26.05,0.00,24.59,3.34,11.56,0.00,0.00,1.70
1,44.64,39.24,4.00,17.71,14.78,0.00,0.00,2.28,43.76,12.82,0.00,21.21,16.66,0.00,17.81,3.72,0.00,0.00,0.00,0.00,26.40,16.90,1.96,9.25,25.03,0.00,22.95,3.12,11.36,0.00,0.00,1.61
1,41.66,35.44,0.00,14.94,14.89,0.00,0.00,2.29,44.15,12.82,0.00,21.61,16.28,0.00,16.44,3.62,0.00,0.00,0.00,0.00,26.03,16.90,1.96,9.14,24.99,0.00,22.95,3.11,11.50,0.00,0.00,1.72
1,39.87,31.65,0.00,14.02,14.71,0.00,0.00,2.28,41.64,10.26,0.00,18.42,16.38,0.00,16.44,3.59,0.00,0.00,0.00,0.00,26.18,16.90,1.96,9.30,24.53,0.00,19.67,3.08,10.63,0.00,0.00,1.48
1,38.53,29.11,0.00,12.99,14.73,0.00,0.00,2.29,41.66,10.26,0.00,17.75,16.15,0.00,16.44,3.49,0.00,0.00,0.00,0.00,25.12,15.49,1.96,8.49,24.37,0.00,19.67,3.04,10.74,0.00,0.00,1.49
1,37.03,27.85,0.00,12.18,14.88,0.00,0.00,2.29,39.63,5.13,0.00,15.08,16.15,0.00,16.44,3.40,0.00,0.00,0.00,0.00,24.28,12.68,0.00,8.04,23.95,0.00,19.67,2.83,10.13,0.00,0.00,1.34
1,36.70,26.58,0.00,11.95,15.06,0.00,0.00,2.32,39.45,5.13,0.00,14.36,16.08,0.00,15.07,3.45,0.00,0.00,0.00,0.00,23.45,11.27,0.00,7.68,24.71,0.00,19.67,2.97,10.40,0.00,0.00,1.37
1,39.77,31.65,2.00,14.71,15.26,0.00,0.00,2.39,37.69,2.56,0.00,13.34,16.13,0.00,16.44,3.51,0.00,0.00,0.00,0.00,23.84,11.27,0.00,8.15,24.14,0.00,18.03,3.11,10.35,0.00,0.00,1.36
1,41.47,32.91,4.00,16.34,15.10,0.00,0.00,2.30,38.01,2.56,0.00,13.71,15.87,0.00,15.07,3.38,0.00,0.00,0.00,0.00,23.47,12.68,0.00,8.35,24.32,0.00,18.03,3.23,10.55,0.00,0.00,1.38
1,41.94,34.18,6.00,16.91,15.22,0.00,0.00,2.28,38.61,2.56,0.00,14.46,15.73,0.00,15.07,3.41,0.00,0.00,0.00,0.00,23.16,11.27,0.00,8.07,24.25,0.00,18.03,3.09,10.59,0.00,0.00,1.40
1,43.06,36.71,6.00,17.06,16.07,0.00,0.00,2.35,38.64,2.56,0.00,14.61,15.73,0.00,15.07,3.43,0.00,0.00,0.00,0.00,23.80,11.27,0.00,8.27,25.28,0.00,18.03,3.22,10.33,0.00,0.00,1.37
1,43.42,39.24,6.00,17.13,15.79,0.00,0.00,2.34,39.11,2.56,0.00,15.09,15.82,0.00,15.07,3.49,0.00,0.00,0.00,0.00,23.75,11.27,0.00,8.31,24.25,0.00,14.75,3.11,10.28,0.00,0.00,1.33
1,43.20,40.51,6.00,17.02,15.76,0.00,0.00,2.38,39.52,2.56,0.00,14.91,16.02,0.00,15.07,3.47,0.00,0.00,0.00,0.00,22.87,9.86,0.00,7.98,23.93,0.00,14.75,3.10,9.99,0.00,0.00,1.22
1,42.61,39.24,6.00,16.93,15.59,0.00,0.00,2.29,39.00,2.56,0.00,14.86,15.77,0.00,13.70,3.39,0.00,0.00,0.00,0.00,22.43,9.86,0.00,7.40,24.08,0.00,14.75,3.07,9.78,0.00,0.00,1.18
1,43.27,40.51,10.00,16.84,15.83,0.00,0.00,2.36,39.42,2.56,0.00,14.95,16.32,0.00,16.44,3.54,0.00,0.00,0.00,0.00,22.69,9.86,0.00,7.49,23.95,0.00,14.75,3.03,9.71,0.00,0.00,1.17
1,42.36,37.97,10.00,16.49,15.91,0.00,0.00,2.40,40.21,5.13,0.00,15.55,16.75,0.00,17.81,3.64,0.00,0.00,0.00,0.00,22.13,9.86,0.00,7.21,23.82,0.00,13.11,3.07,9.68,0.00,0.00,1.18
1,44.22,41.77,12.00,17.54,16.76,0.00,0.00,2.62,42.10,7.69,0.00,17.16,16.55,0.00,17.81,3.58,0.00,0.00,0.00,0.00,22.27,9.86,0.00,7.27,23.85,0.00,13.11,3.09,10.04,0.00,0.00,1.25
1,42.65,37.97,12.00,16.66,17.33,0.00,0.00,2.86,41.72,7.69,0.00,17.37,16.07,0.00,17.81,3.48,0.00,0.00,0.00,0.00,22.15,11.27,0.00,7.10,22.18,0.00,9.84,2.73,9.70,0.00,0.00,1.21
1,43.55,39.24,12.00,17.67,17.63,0.00,0.00,2.90,41.80,7.69,0.00,17.08,15.88,0.00,16.44,3.40,0.00,0.00,0.00,0.00,21.92,9.86,0.00,7.16,22.37,0.00,13.11,2.79,9.71,0.00,0.00,1.19
1,43.60,40.51,12.00,18.24,17.35,0.00,0.00,2.81,41.93,7.69,0.00,17.59,16.72,0.00,17.81,3.75,0.00,0.00,0.00,0.00,20.64,8.45,0.00,6.47,22.00,0.00,9.84,2.64,9.59,0.00,0.00,1.17
1,45.00,41.77,14.00,19.77,17.92,0.00,0.00,2.98,41.63,7.69,0.00,17.30,17.41,0.00,19.18,3.97,0.00,0.00,0.00,0.00,20.86,8.45,0.00,6.51,22.56,0.00,11.48,2.84,9.88,0.00,0.00,1.23
1,46.55,44.30,18.00,20.19,18.03,0.00,0.00,2.94,42.45,10.26,0.00,18.08,17.27,0.00,17.81,3.92,0.00,0.00,0.00,0.00,20.75,7.04,0.00,6.46,22.22,0.00,11.48,2.76,9.33,0.00,0.00,1.11
1,48.75,45.57,22.00,24.20,18.14,0.00,0.00,3.03,42.01,10.26,0.00,17.78,17.57,0.00,16.44,4.06,0.00,0.00,0.00,0.00,21.04,7.04,0.00,6.76,23.78,3.12,14.75,3.23,9.34,0.00,0.00,1.07
1,49.76,46.84,24.00,24.47,19.21,0.00,0.00,3.39,42.70,10.26,0.00,18.35,17.87,0.00,16.44,4.35,0.00,0.00,0.00,0.00,21.68,7.04,0.00,6.98,24.63,3.12,14.75,3.44,9.40,0.00,0.00,1.06
1,49.32,46.84,24.00,24.16,19.07,0.00,0.00,3.35,40.51,10.26,0.00,17.57,17.80,0.00,16.44,4.31,0.00,0.00,0.00,0.00,21.23,7.04,0.00,6.71,24.40,3.12,14.75,3.40,9.17,0.00,0.00,0.94
1,50.98,49.37,26.00,24.86,19.32,0.00,0.00,3.46,40.49,10.26,0.00,17.64,17.42,0.00,15.07,4.16,0.00,0.00,0.00,0.00,21.32,7.04,0.00,6.87,24.29,3.12,14.75,3.40,8.71,0.00,0.00,0.85
1,49.74,46.84,26.00,24.56,18.99,0.00,0.00,3.42,40.58,10.26,0.00,17.79,16.86,0.00,13.70,3.97,0.00,0.00,0.00,0.00,20.79,7.04,0.00,6.61,23.70,3.12,13.11,3.25,9.13,0.00,0.00,0.91
1,51.63,50.63,28.00,25.24,19.35,0.00,0.00,3.52,40.59,10.26,0.00,17.82,16.78,0.00,13.70,3.75,0.00,0.00,0.00,0.00,20.44,7.04,0.00,6.26,23.84,3.12,13.11,3.22,9.24,0.00,0.00,0.96
1,49.25,46.84,26.00,23.88,19.51,0.00,0.00,3.52,41.25,10.26,0.00,17.67,16.49,0.00,12.33,3.56,0.00,0.00,0.00,0.00,19.87,7.04,0.00,6.04,22.80,3.12,11.48,2.89,9.49,0.00,0.00,1.04
1,47.00,45.57,24.00,21.58,19.40,0.00,0.00,3.54,42.71,10.26,0.00,17.49,17.39,0.00,13.70,3.91,0.00,0.00,0.00,0.00,19.88,4.23,0.00,5.47,22.06,3.12,9.84,2.77,9.59,0.00,0.00,1.08
1,47.23,45.57,22.00,21.27,19.42,0.00,0.00,3.53,43.50,12.82,0.00,18.26,18.26,0.00,15.07,4.48,0.00,0.00,0.00,0.00,19.80,4.23,0.00,5.48,21.70,3.12,9.84,2.77,9.53,0.00,0.00,1.07
1,47.33,46.84,22.00,21.97,19.04,0.00,0.00,3.41,44.08,12.82,0.00,18.60,18.72,0.00,16.44,4.70,0.00,0.00,0.00,0.00,19.36,4.23,0.00,5.51,21.96,3.12,11.48,2.79,9.70,0.00,0.00,1.11
1,46.74,43.04,22.00,21.68,19.16,0.00,0.00,3.41,43.90,12.82,0.00,18.44,19.12,0.00,17.81,4.80,0.00,0.00,0.00,0.00,19.47,4.23,0.00,5.64,21.79,3.12,11.48,2.74,9.91,0.00,0.00,1.11
1,48.48,44.30,24.00,22.91,19.13,0.00,0.00,3.39,44.93,15.38,0.00,19.82,19.83,0.00,17.81,5.39,0.00,0.00,0.00,0.00,19.92,4.23,0.00,5.69,22.46,3.12,11.48,2.80,10.30,0.00,0.00,1.37
1,47.97,44.30,24.00,22.74,19.43,0.00,0.00,3.41,46.82,17.95,0.00,20.97,20.53,0.00,19.18,5.63,0.00,0.00,0.00,0.00,19.83,4.23,0.00,5.73,23.24,3.12,13.11,2.93,11.15,0.00,0.00,1.64
1,48.93,45.57,24.00,23.75,19.52,0.00,0.00,3.43,46.74,17.95,0.00,20.72,20.29,0.00,16.44,5.71,0.00,0.00,0.00,0.00,19.87,4.23,0.00,5.67,24.17,3.12,16.39,3.11,11.87,0.00,0.00,1.88
1,48.12,43.04,22.00,23.09,20.48,0.00,0.00,3.66,46.73,15.38,0.00,20.03,20.56,0.00,16.44,5.75,0.00,0.00,0.00,0.00,20.28,4.23,0.00,5.78,24.67,3.12,19.67,3.14,12.08,0.00,0.00,1.89
1,47.43,43.04,22.00,22.80,19.80,0.00,0.00,3.43,45.55,12.82,0.00,18.80,20.79,0.00,16.44,5.98,0.00,0.00,0.00,0.00,20.86,4.23,0.00,6.16,25.14,3.12,19.67,3.20,12.00,0.00,0.00,1.88
1,47.95,45.57,22.00,22.72,19.61,0.00,0.00,3.25,45.96,12.82,0.00,19.50,21.11,0.00,16.44,6.09,0.00,0.00,0.00,0.00,20.93,4.23,0.00,6.32,25.84,3.12,21.31,3.24,11.92,0.00,0.00,1.86
1,47.94,45.57,22.00,22.83,20.39,0.00,0.00,3.43,45.65,12.82,0.00,19.24,20.89,0.00,16.44,6.05,0.00,0.00,0.00,0.00,21.31,4.23,0.00,6.42,26.19,3.12,21.31,3.30,11.94,0.00,0.00,1.89
1,47.09,41.77,22.00,21.57,20.29,0.00,0.00,3.42,45.39,10.26,0.00,19.32,21.01,0.00,16.44,6.19,0.00,0.00,0.00,0.00,21.23,4.23,0.00,6.38,26.43,3.12,21.31,3.32,11.94,0.00,0.00,1.87
1,49.71,44.30,24.00,23.48,20.21,0.00,0.00,3.44,46.33,10.26,0.00,19.37,20.98,0.00,15.07,6.16,0.00,0.00,0.00,0.00,22.37,7.04,0.00,7.04,25.70,3.12,18.03,3.03,12.56,0.00,0.00,2.01
1,48.06,40.51,22.00,22.16,19.93,0.00,0.00,3.44,45.56,7.69,0.00,18.59,20.81,0.00,16.44,5.96,0.00,0.00,0.00,0.00,22.39,8.45,0.00,7.42,26.03,3.12,18.03,3.27,12.35,0.00,0.00,1.97
1,44.46,37.97,18.00,17.13,19.57,0.00,0.00,3.22,46.49,7.69,0.00,18.90,20.76,0.00,19.18,5.76,0.00,0.00,0.00,0.00,21.10,5.63,0.00,6.31,25.14,0.00,14.75,2.94,12.72,0.00,0.00,2.00
1,44.61,39.24,16.00,17.26,19.28,0.00,0.00,3.03,46.04,7.69,0.00,18.81,20.49,0.00,19.18,5.53,0.00,0.00,0.00,0.00,20.62,5.63,0.00,6.19,25.27,0.00,16.39,2.90,12.37,0.00,0.00,1.95
1,44.31,39.24,16.00,16.89,19.32,0.00,0.00,3.17,45.81,7.69,0.00,19.06,19.93,0.00,19.18,5.39,0.00,0.00,0.00,0.00,21.20,7.04,0.00,6.38,25.52,0.00,18.03,2.97,12.31,0.00,0.00,1.96
1,43.33,36.71,14.00,16.52,19.74,0.00,0.00,3.25,46.88,7.69,0.00,20.04,20.27,0.00,21.92,5.40,0.00,0.00,0.00,0.00,21.40,7.04,0.00,6.54,25.81,0.00,18.03,3.01,12.30,0.00,0.00,1.94
1,44.04,37.97,14.00,16.71,20.37,0.00,0.00,3.44,46.04,7.69,0.00,19.66,20.40,0.00,21.92,5.44,0.00,0.00,0.00,0.00,21.59,7.04,0.00,6.57,26.33,0.00,21.31,3.15,12.00,0.00,0.00,1.91
1,42.71,34.18,12.00,16.50,20.34,0.00,0.00,3.44,46.70,7.69,0.00,20.54,20.50,0.00,23.29,5.53,0.00,0.00,0.00,0.00,21.93,7.04,0.00,6.86,26.48,0.00,21.31,3.12,12.04,0.00,0.00,1.89
1,43.05,35.44,12.00,16.80,20.35,0.00,0.00,3.42,46.98,7.69,0.00,20.89,20.97,0.00,24.66,5.76,0.00,0.00,0.00,0.00,22.03,7.04,0.00,6.80,27.22,0.00,24.59,3.31,11.56,0.00,0.00,1.80
1,42.11,32.91,12.00,16.19,20.66,0.00,0.00,3.41,45.91,10.26,0.00,21.71,20.64,0.00,24.66,5.61,0.00,0.00,0.00,0.00,21.04,7.04,0.00,6.45,27.71,0.00,24.59,3.35,11.25,0.00,0.00,1.77
1,42.27,32.91,12.00,16.44,20.90,0.00,0.00,3.50,44.31,7.69,0.00,20.42,19.95,0.00,24.66,5.17,0.00,0.00,0.00,0.00,21.18,7.04,0.00,6.51,28.12,0.00,24.59,3.39,11.05,0.00,0.00,1.67
1,40.96,30.38,12.00,15.91,20.77,0.00,0.00,3.50,43.86,7.69,0.00,20.48,19.38,0.00,23.29,4.90,0.00,0.00,0.00,0.00,20.94,7.04,0.00,6.36,27.41,0.00,22.95,3.31,11.14,0.00,0.00,1.69
1,39.09,29.11,12.00,14.96,20.59,0.00,0.00,3.52,42.26,7.69,0.00,19.35,18.65,0.00,20.55,4.63,0.00,0.00,0.00,0.00,20.83,7.04,0.00,6.30,27.32,0.00,22.95,3.32,11.04,0.00,0.00,1.68
1,37.46,27.85,10.00,14.05,21.24,0.00,0.00,3.61,40.65,5.13,0.00,17.72,17.52,0.00,19.18,3.97,0.00,0.00,0.00,0.00,20.63,7.04,0.00,6.20,27.77,0.00,24.59,3.44,10.27,0.00,0.00,1.39
1,39.31,30.38,12.00,14.99,21.18,0.00,0.00,3.72,41.19,5.13,0.00,17.70,17.12,0.00,17.81,3.83,0.00,0.00,0.00,0.00,20.06,7.04,0.00,6.02,26.65,0.00,22.95,3.25,10.18,0.00,0.00,1.40
1,37.87,27.85,10.00,13.78,21.47,0.00,0.00,3.74,41.09,2.56,0.00,18.16,16.95,0.00,19.18,3.71,0.00,0.00,0.00,0.00,19.87,7.04,0.00,6.03,25.59,0.00,19.67,3.09,8.92,0.00,0.00,0.92
1,37.43,27.85,10.00,13.80,20.79,0.00,0.00,3.60,40.36,2.56,0.00,17.97,16.52,0.00,17.81,3.53,0.00,0.00,0.00,0.00,19.87,7.04,0.00,6.11,25.37,0.00,16.39,3.06,8.81,0.00,0.00,0.89
1,35.78,24.05,8.00,13.14,20.56,0.00,0.00,3.56,40.09,2.56,0.00,17.64,16.60,0.00,19.18,3.44,0.00,0.00,0.00,0.00,19.37,7.04,0.00,5.84,25.36,0.00,18.03,3.06,9.08,0.00,0.00,0.91
1,34.63,20.25,8.00,12.43,20.32,0.00,0.00,3.59,38.79,2.56,0.00,16.13,16.29,0.00,19.18,3.29,0.00,0.00,0.00,0.00,18.42,5.63,0.00,5.26,25.33,0.00,18.03,3.17,9.42,0.00,0.00,0.97
1,34.62,20.25,8.00,12.44,20.85,0.00,0.00,3.81,40.13,5.13,0.00,16.92,16.61,0.00,20.55,3.42,0.00,0.00,0.00,0.00,18.46,5.63,0.00,5.24,25.03,0.00,18.03,3.13,10.14,0.00,0.00,1.14
1,33.88,20.25,8.00,11.77,21.53,0.00,0.00,4.03,40.02,5.13,0.00,16.83,15.92,0.00,19.18,3.17,0.00,0.00,0.00,0.00,18.41,5.63,0.00,5.15,25.06,0.00,18.03,3.13,10.12,0.00,0.00,1.12
1,33.46,21.52,6.00,11.41,20.58,0.00,0.00,3.79,39.64,5.13,0.00,17.23,16.73,0.00,20.55,3.45,0.00,0.00,0.00,0.00,18.54,4.23,0.00,5.13,24.59,0.00,18.03,3.11,9.51,0.00,0.00,0.99
1,31.37,17.72,2.00,10.18,21.09,0.00,0.00,3.87,40.30,7.69,0.00,19.23,16.69,0.00,19.18,3.63,0.00,0.00,0.00,0.00,17.31,1.41,0.00,4.31,23.85,0.00,18.03,2.84,10.52,0.00,0.00,1.27
1,31.72,18.99,2.00,10.16,21.40,0.00,0.00,3.88,41.24,7.69,0.00,19.49,17.19,0.00,20.55,3.84,0.00,0.00,0.00,0.00,17.16,1.41,0.00,4.29,23.61,0.00,18.03,2.69,10.08,0.00,0.00,1.23
1,32.49,18.99,2.00,10.43,21.18,0.00,0.00,3.85,42.35,10.26,0.00,20.44,17.06,0.00,20.55,3.86,0.00,0.00,0.00,0.00,17.57,1.41,0.00,4.37,23.44,0.00,18.03,2.69,10.71,0.00,0.00,1.33
1,33.26,20.25,6.00,10.65,20.52,0.00,0.00,3.71,41.91,10.26,0.00,19.67,17.65,0.00,21.92,4.00,0.00,0.00,0.00,0.00,17.11,0.00,0.00,4.29,22.71,0.00,16.39,2.51,10.61,0.00,0.00,1.32
1,33.34,22.78,6.00,11.09,19.85,0.00,0.00,3.56,40.78,10.26,0.00,18.66,17.27,0.00,19.18,3.95,0.00,0.00,0.00,0.00,16.36,0.00,0.00,3.96,23.30,0.00,19.67,2.58,10.85,0.00,0.00,1.37
1,34.25,25.32,6.00,11.88,19.39,0.00,0.00,3.41,41.91,10.26,0.00,19.15,17.63,0.00,19.18,4.11,0.00,0.00,0.00,0.00,16.63,0.00,0.00,3.96,22.58,0.00,16.39,2.44,10.78,0.00,0.00,1.37
1,34.18,26.58,6.00,11.91,19.31,0.00,0.00,3.49,41.45,10.26,0.00,19.09,17.37,0.00,17.81,4.11,0.00,0.00,0.00,0.00,16.17,0.00,0.00,3.85,23.13,0.00,16.39,2.56,10.71,0.00,0.00,1.38
1,34.28,26.58,6.00,11.74,19.88,0.00,0.00,3.68,41.72,10.26,0.00,18.78,17.25,0.00,17.81,4.00,0.00,0.00,0.00,0.00,16.03,0.00,0.00,3.86,22.07,0.00,13.11,2.36,10.64,0.00,0.00,1.35
1,34.58,27.85,6.00,11.61,19.14,0.00,0.00,3.64,40.86,7.69,0.00,17.86,16.92,0.00,16.44,3.92,0.00,0.00,0.00,0.00,15.97,0.00,0.00,3.86,22.10,0.00,13.11,2.36,11.01,0.00,0.00,1.38
1,35.04,29.11,6.00,11.69,19.44,0.00,0.00,3.65,40.95,7.69,0.00,17.65,16.50,0.00,15.07,3.76,0.00,0.00,0.00,0.00,16.02,0.00,0.00,3.84,22.28,0.00,13.11,2.33,11.10,0.00,0.00,1.39
1,35.64,31.65,6.00,11.81,19.44,0.00,0.00,3.79,39.96,7.69,0.00,17.08,16.51,0.00,15.07,3.78,0.00,0.00,0.00,0.00,16.62,1.41,0.00,4.19,22.69,0.00,14.75,2.42,11.13,0.00,0.00,1.39
1,36.96,34.18,6.00,12.03,20.45,0.00,0.00,4.03,40.71,7.69,0.00,17.33,16.78,0.00,15.07,3.85,0.00,0.00,0.00,0.00,17.08,1.41,0.00,4.29,23.53,0.00,14.75,2.51,11.37,0.00,0.00,1.42
1,38.30,35.44,8.00,12.40,19.77,0.00,0.00,3.94,41.05,7.69,0.00,17.78,17.10,0.00,16.44,3.99,0.00,0.00,0.00,0.00,17.68,1.41,0.00,4.73,23.36,0.00,13.11,2.39,11.48,0.00,0.00,1.47
1,39.01,35.44,6.00,12.83,19.87,0.00,0.00,3.91,41.41,7.69,0.00,17.17,17.08,0.00,17.81,3.97,0.00,0.00,0.00,0.00,17.51,1.41,0.00,4.61,24.02,0.00,13.11,2.51,11.79,0.00,0.00,1.52
1,38.83,36.71,6.00,12.90,20.38,0.00,0.00,4.02,40.85,7.69,0.00,16.20,17.29,0.00,19.18,4.03,0.00,0.00,0.00,0.00,18.61,2.82,0.00,5.32,24.57,0.00,13.11,2.59,12.37,0.00,0.00,1.60
1,38.78,36.71,6.00,12.89,19.62,0.00,0.00,3.86,41.75,7.69,0.00,16.51,18.01,0.00,20.55,4.21,0.00,0.00,0.00,0.00,19.53,2.82,0.00,5.63,24.78,0.00,13.11,2.52,12.80,0.00,0.00,1.77
1,39.31,36.71,6.00,12.72,19.57,0.00,0.00,3.83,42.35,7.69,0.00,16.88,17.97,0.00,20.55,4.28,0.00,0.00,0.00,0.00,19.67,2.82,0.00,5.81,24.79,0.00,13.11,2.59,13.45,0.00,0.00,2.18
1,41.09,39.24,8.00,14.58,19.78,0.00,0.00,3.90,42.75,7.69,0.00,17.19,18.39,0.00,20.55,4.34,0.00,0.00,0.00,0.00,19.87,2.82,0.00,5.96,24.36,0.00,11.48,2.41,13.20,0.00,0.00,2.16
1,42.28,43.04,8.00,15.15,18.83,0.00,0.00,3.53,40.96,5.13,0.00,16.46,17.97,0.00,19.18,4.18,0.00,0.00,0.00,0.00,20.03,2.82,0.00,6.14,23.81,0.00,9.84,2.35,12.64,0.00,0.00,2.10
1,41.91,41.77,8.00,14.99,18.84,0.00,0.00,3.57,40.45,5.13,0.00,16.08,17.89,0.00,19.18,4.16,0.00,0.00,0.00,0.00,20.38,2.82,0.00,6.23,24.16,0.00,11.48,2.35,12.55,0.00,0.00,2.05
1,42.09,40.51,8.00,15.42,18.12,0.00,0.00,3.27,40.04,5.13,0.00,15.24,17.46,0.00,20.55,3.89,0.00,0.00,0.00,0.00,20.21,2.82,0.00,6.21,24.48,0.00,11.48,2.54,12.87,0.00,0.00,2.09
1,41.69,40.51,8.00,14.52,17.61,0.00,0.00,3.17,39.39,2.56,0.00,14.90,17.05,0.00,20.55,3.67,0.00,0.00,0.00,0.00,20.26,2.82,0.00,6.31,25.05,0.00,11.48,2.66,12.08,0.00,0.00,1.88
1,41.00,40.51,8.00,14.41,17.19,0.00,0.00,3.09,39.13,2.56,0.00,14.22,17.31,0.00,19.18,3.70,0.00,0.00,0.00,0.00,20.44,2.82,0.00,6.33,24.75,0.00,11.48,2.64,12.48,0.00,0.00,1.89
1,40.43,37.97,8.00,14.11,16.53,0.00,0.00,3.03,37.19,0.00,0.00,13.09,16.97,0.00,17.81,3.59,0.00,0.00,0.00,0.00,20.29,2.82,0.00,6.25,23.85,0.00,9.84,2.53,11.94,0.00,0.00,1.84
1,40.15,36.71,6.00,13.99,17.39,0.00,0.00,3.21,37.33,0.00,0.00,12.82,16.85,0.00,17.81,3.58,0.00,0.00,0.00,0.00,20.28,2.82,0.00,6.25,24.54,0.00,11.48,2.61,11.86,0.00,0.00,1.78
1,40.66,35.44,6.00,14.89,18.29,0.00,0.00,3.60,37.91,0.00,0.00,13.13,17.18,0.00,19.18,3.68,0.00,0.00,0.00,0.00,21.74,5.63,0.00,7.06,24.38,0.00,9.84,2.66,12.05,0.00,0.00,1.85
1,42.05,36.71,8.00,15.66,18.77,0.00,0.00,3.65,37.10,0.00,0.00,12.75,17.21,0.00,21.92,3.62,0.00,0.00,0.00,0.00,21.84,5.63,0.00,7.14,24.84,0.00,9.84,2.68,11.87,0.00,0.00,1.84
1,43.61,39.24,8.00,16.24,18.15,0.00,0.00,3.36,36.59,0.00,0.00,12.05,17.19,0.00,21.92,3.55,0.00,0.00,0.00,0.00,21.86,5.63,0.00,6.95,24.40,0.00,9.84,2.59,12.04,0.00,0.00,1.86
1,44.69,41.77,10.00,17.20,17.34,0.00,0.00,3.08,36.26,0.00,0.00,12.02,16.89,0.00,20.55,3.43,0.00,0.00,0.00,0.00,22.39,5.63,0.00,7.15,24.21,0.00,9.84,2.54,12.10,0.00,0.00,1.87
1,46.29,44.30,10.00,18.31,17.40,0.00,0.00,3.05,36.38,0.00,0.00,12.09,17.10,0.00,21.92,3.44,0.00,0.00,0.00,0.00,22.29,5.63,0.00,7.11,24.14,0.00,11.48,2.56,12.08,0.00,0.00,1.90
1,46.81,46.84,10.00,18.60,17.18,0.00,0.00,3.08,35.87,0.00,0.00,11.73,17.26,0.00,21.92,3.44,0.00,0.00,0.00,0.00,22.59,5.63,0.00,7.29,24.79,0.00,13.11,2.73,12.35,0.00,0.00,1.96
1,45.94,44.30,10.00,18.47,16.75,0.00,0.00,2.89,36.64,0.00,0.00,12.40,17.44,0.00,21.92,3.50,0.00,0.00,0.00,0.00,22.61,4.23,0.00,7.17,25.04,0.00,13.11,2.74,12.17,0.00,0.00,1.92
1,45.77,41.77,10.00,18.36,16.78,0.00,0.00,2.91,36.76,0.00,0.00,12.61,17.32,0.00,21.92,3.51,0.00,0.00,0.00,0.00,22.62,4.23,0.00,7.06,25.41,0.00,14.75,2.74,12.19,0.00,0.00,1.94
1,45.05,39.24,8.00,17.99,16.93,0.00,0.00,3.06,36.10,0.00,0.00,11.93,17.26,0.00,20.55,3.46,0.00,0.00,0.00,0.00,22.32,4.23,0.00,6.82,26.01,0.00,16.39,2.86,12.48,0.00,0.00,2.02
1,44.29,39.24,8.00,17.40,17.50,0.00,0.00,3.28,35.22,0.00,0.00,11.65,17.17,0.00,19.18,3.43,0.00,0.00,0.00,0.00,22.96,4.23,0.00,7.05,25.79,0.00,18.03,2.84,12.20,0.00,0.00,1.98
1,44.51,37.97,8.00,17.18,17.17,0.00,0.00,3.24,34.40,2.56,0.00,11.66,16.77,0.00,16.44,3.30,0.00,0.00,0.00,0.00,22.63,2.82,0.00,6.60,25.55,0.00,18.03,2.75,12.38,0.00,0.00,1.94
1,45.93,40.51,10.00,18.47,17.33,0.00,0.00,3.19,34.66,5.13,0.00,12.45,16.87,0.00,17.81,3.23,0.00,0.00,0.00,0.00,23.28,5.63,0.00,7.12,25.32,0.00,19.67,2.76,12.12,0.00,0.00,2.08
1,46.51,41.77,10.00,19.06,17.55,0.00,0.00,3.22,33.47,5.13,0.00,11.63,16.90,0.00,17.81,3.26,0.00,0.00,0.00,0.00,23.52,7.04,0.00,7.22,25.57,0.00,21.31,2.74,11.54,0.00,0.00,1.77
1,45.04,39.24,8.00,17.40,17.33,0.00,0.00,3.11,33.28,5.13,0.00,11.99,16.60,0.00,17.81,3.20,0.00,0.00,0.00,0.00,23.54,7.04,0.00,7.11,26.56,0.00,26.23,2.94,11.53,0.00,0.00,1.70
1,46.09,39.24,8.00,18.50,17.72,0.00,0.00,3.21,33.50,5.13,0.00,11.98,16.86,0.00,17.81,3.33,0.00,0.00,0.00,0.00,23.90,7.04,0.00,7.46,27.40,0.00,26.23,3.07,12.37,0.00,0.00,2.00
1,46.64,39.24,10.00,19.07,17.61,0.00,0.00,3.29,32.85,5.13,0.00,11.62,17.24,0.00,17.81,3.33,0.00,0.00,0.00,0.00,24.76,8.45,0.00,7.88,27.38,0.00,24.59,3.19,12.44,0.00,0.00,1.97
1,47.13,43.04,10.00,19.04,17.72,0.00,0.00,3.29,32.99,5.13,0.00,11.50,16.96,0.00,16.44,3.24,0.00,0.00,0.00,0.00,24.30,8.45,0.00,7.74,26.89,0.00,24.59,3.11,12.39,0.00,0.00,2.01
1,48.21,45.57,10.00,19.63,17.65,0.00,0.00,3.27,32.60,5.13,0.00,11.19,16.41,0.00,13.70,3.14,0.00,0.00,0.00,0.00,23.98,8.45,0.00,7.62,26.16,0.00,24.59,2.88,12.32,0.00,0.00,1.97
1,48.87,46.84,10.00,19.76,18.62,0.00,0.00,3.62,32.57,5.13,0.00,10.51,16.33,0.00,15.07,3.04,0.00,0.00,0.00,0.00,23.97,8.45,0.00,7.55,27.75,0.00,27.87,3.21,12.31,0.00,0.00,2.02
1,48.63,46.84,12.00,20.18,18.54,0.00,0.00,3.58,32.43,5.13,0.00,10.67,16.56,0.00,16.44,3.19,0.00,0.00,0.00,0.00,23.59,8.45,0.00,7.50,27.76,0.00,29.51,3.29,12.18,0.00,0.00,1.95
1,49.76,49.37,12.00,20.76,18.56,0.00,0.00,3.52,33.44,5.13,0.00,11.29,16.68,0.00,15.07,3.13,0.00,0.00,0.00,0.00,24.13,8.45,0.00,7.61,28.40,0.00,31.15,3.45,12.83,0.00,0.00,2.08
1,48.98,49.37,10.00,20.72,17.42,0.00,0.00,3.02,33.54,5.13,0.00,11.64,16.42,0.00,13.70,3.09,0.00,0.00,0.00,0.00,22.72,7.04,0.00,6.98,28.11,0.00,29.51,3.48,12.44,0.00,0.00,1.99
1,47.39,46.84,10.00,18.77,17.24,0.00,0.00,2.95,34.35,7.69,0.00,12.62,16.33,0.00,10.96,3.21,0.00,0.00,0.00,0.00,22.99,7.04,0.00,7.24,28.26,0.00,31.15,3.56,12.85,0.00,0.00,2.08
1,46.12,44.30,10.00,18.13,17.38,0.00,0.00,3.13,34.20,7.69,0.00,12.67,16.32,0.00,10.96,3.17,0.00,0.00,0.00,0.00,22.66,7.04,0.00,7.17,29.10,0.00,32.79,3.75,12.74,0.00,0.00,2.06
1,45.58,43.04,8.00,17.35,17.72,0.00,0.00,3.25,33.97,7.69,0.00,12.34,16.87,0.00,10.96,3.45,0.00,0.00,0.00,0.00,22.52,7.04,0.00,7.04,30.10,0.00,34.43,3.94,12.57,0.00,0.00,2.04
1,47.37,45.57,12.00,18.82,17.82,0.00,0.00,3.30,34.09,7.69,0.00,11.87,16.60,0.00,9.59,3.31,0.00,0.00,0.00,0.00,23.89,9.86,0.00,7.84,30.40,0.00,37.70,3.99,12.72,0.00,0.00,2.10
1,47.95,46.84,14.00,19.18,17.55,0.00,0.00,3.23,34.73,7.69,0.00,12.20,16.83,0.00,10.96,3.39,0.00,0.00,0.00,0.00,25.17,11.27,0.00,8.53,29.84,0.00,36.07,3.89,12.73,0.00,0.00,2.09
1,48.67,48.10,16.00,19.64,18.03,0.00,0.00,3.31,34.25,7.69,0.00,11.88,16.89,0.00,10.96,3.41,0.00,0.00,0.00,0.00,24.67,11.27,0.00,8.29,29.21,0.00,34.43,3.86,13.06,0.00,0.00,2.15
1,49.52,49.37,16.00,21.27,18.02,0.00,0.00,3.40,34.00,7.69,0.00,11.95,17.11,0.00,12.33,3.52,0.00,0.00,0.00,0.00,24.47,11.27,0.00,8.29,29.93,0.00,34.43,4.01,12.78,0.00,0.00,2.10
1,49.48,50.63,16.00,21.23,17.88,0.00,0.00,3.08,33.81,7.69,0.00,12.44,17.32,0.00,12.33,3.62,0.00,0.00,0.00,0.00,24.18,11.27,0.00,8.24,29.45,0.00,36.07,3.99,12.56,0.00,0.00,2.05
1,48.72,49.37,16.00,20.93,18.13,0.00,0.00,3.06,34.72,7.69,0.00,12.64,17.43,0.00,13.70,3.65,0.00,0.00,0.00,0.00,24.25,11.27,0.00,8.23,28.29,0.00,32.79,3.81,12.58,0.00,0.00,2.03
1,49.02,50.63,16.00,21.00,18.17,0.00,0.00,3.13,35.24,7.69,0.00,12.69,17.62,0.00,15.07,3.83,0.00,0.00,0.00,0.00,23.68,11.27,0.00,7.91,28.56,0.00,34.43,3.82,12.85,0.00,0.00,2.08
1,47.11,48.10,14.00,20.15,18.17,0.00,0.00,3.20,33.57,2.56,0.00,11.53,17.34,0.00,12.33,3.64,0.00,0.00,0.00,0.00,22.40,8.45,0.00,7.30,28.47,0.00,34.43,3.86,11.75,0.00,0.00,1.69
1,47.64,51.90,14.00,20.29,17.78,0.00,0.00,3.16,34.77,2.56,0.00,11.64,16.70,0.00,10.96,3.44,0.00,0.00,0.00,0.00,22.22,7.04,0.00,7.10,28.06,0.00,31.15,3.91,12.07,0.00,0.00,1.79
1,49.35,55.70,18.00,21.36,17.67,0.00,0.00,3.15,34.52,2.56,0.00,11.20,17.18,0.00,12.33,3.56,0.00,0.00,0.00,0.00,22.43,7.04,0.00,7.03,26.40,0.00,26.23,3.64,11.96,0.00,0.00,1.85
1,48.84,56.96,18.00,20.73,17.56,0.00,0.00,3.21,33.53,2.56,0.00,11.04,17.00,0.00,12.33,3.49,0.00,0.00,0.00,0.00,22.33,7.04,0.00,6.82,26.14,0.00,27.87,3.67,11.40,0.00,0.00,1.60
1,47.34,54.43,16.00,19.97,17.41,0.00,0.00,3.07,34.05,2.56,0.00,11.54,16.98,0.00,13.70,3.46,0.00,0.00,0.00,0.00,21.50,5.63,0.00,6.54,25.76,0.00,27.87,3.61,11.24,0.00,0.00,1.53
1,45.19,49.37,16.00,18.64,17.39,0.00,0.00,3.06,35.87,5.13,0.00,12.53,17.37,0.00,15.07,3.52,0.00,0.00,0.00,0.00,21.61,5.63,0.00,6.31,26.03,0.00,26.23,3.64,11.15,0.00,0.00,1.49
1,44.68,48.10,16.00,18.24,17.92,0.00,0.00,3.17,35.70,5.13,0.00,12.66,17.46,0.00,16.44,3.54,0.00,0.00,0.00,0.00,21.30,5.63,0.00,6.20,25.62,0.00,26.23,3.58,11.33,0.00,0.00,1.51
1,44.72,48.10,16.00,18.15,17.90,0.00,0.00,3.07,37.72,7.69,0.00,13.94,17.82,0.00,16.44,3.71,0.00,0.00,0.00,0.00,21.09,5.63,0.00,6.05,24.97,0.00,22.95,3.52,11.06,0.00,0.00,1.48
1,44.93,46.84,14.00,17.92,17.72,0.00,0.00,2.96,38.39,7.69,0.00,14.37,18.08,0.00,16.44,3.75,0.00,0.00,0.00,0.00,21.08,5.63,0.00,6.08,24.56,0.00,21.31,3.22,11.13,0.00,0.00,1.48
1,46.03,49.37,14.00,18.17,18.17,0.00,0.00,3.10,38.75,10.26,0.00,15.73,18.89,0.00,17.81,4.14,0.00,0.00,0.00,0.00,21.45,5.63,0.00,6.33,25.24,0.00,21.31,3.52,10.58,0.00,0.00,1.39
1,46.51,49.37,16.00,19.05,18.61,0.00,0.00,3.33,39.19,10.26,0.00,16.03,19.09,0.00,19.18,4.24,0.00,0.00,0.00,0.00,21.91,5.63,0.00,6.47,24.95,0.00,21.31,3.23,10.26,0.00,0.00,1.33
1,46.78,49.37,16.00,18.92,19.50,0.00,0.00,3.60,39.78,10.26,0.00,16.25,18.66,0.00,19.18,4.14,0.00,0.00,0.00,0.00,22.24,4.23,0.00,6.56,24.48,0.00,21.31,3.18,10.15,0.00,0.00,1.29
1,46.02,49.37,14.00,18.39,19.94,0.00,0.00,3.78,39.69,10.26,0.00,15.94,18.49,0.00,19.18,4.09,0.00,0.00,0.00,0.00,23.10,5.63,0.00,7.80,24.67,0.00,21.31,3.14,10.29,0.00,0.00,1.32
1,45.46,49.37,14.00,18.30,19.88,0.00,0.00,3.60,41.15,10.26,0.00,16.56,17.75,0.00,19.18,3.81,0.00,0.00,0.00,0.00,23.44,5.63,0.00,7.94,24.58,0.00,21.31,3.12,10.22,0.00,0.00,1.30
1,43.64,46.84,12.00,17.22,20.35,0.00,0.00,3.70,40.19,10.26,0.00,16.52,17.72,0.00,17.81,3.76,0.00,0.00,0.00,0.00,22.55,2.82,0.00,7.32,23.41,0.00,16.39,2.89,9.88,0.00,0.00,1.22
1,41.45,44.30,10.00,16.03,20.66,0.00,0.00,3.73,40.38,10.26,0.00,16.67,17.47,0.00,17.81,3.72,0.00,0.00,0.00,0.00,21.96,1.41,0.00,6.91,23.61,0.00,18.03,3.00,9.91,0.00,0.00,1.20
1,41.61,44.30,8.00,16.81,20.56,0.00,0.00,3.74,41.10,10.26,0.00,16.72,17.35,0.00,17.81,3.64,0.00,0.00,0.00,0.00,22.00,1.41,0.00,6.95,23.86,0.00,21.31,3.05,10.08,0.00,0.00,1.20
1,39.83,41.77,8.00,14.43,20.65,0.00,0.00,3.73,40.94,10.26,0.00,16.34,17.39,0.00,16.44,3.50,0.00,0.00,0.00,0.00,22.22,1.41,0.00,6.91,23.02,0.00,21.31,2.88,10.16,0.00,0.00,1.21
1,40.80,44.30,10.00,15.37,19.85,0.00,0.00,3.58,41.78,10.26,0.00,17.14,17.64,0.00,17.81,3.70,0.00,0.00,0.00,0.00,22.74,1.41,0.00,6.98,23.00,0.00,19.67,2.90,10.28,0.00,0.00,1.19
1,41.08,45.57,10.00,15.27,19.42,0.00,0.00,3.45,41.64,10.26,0.00,17.00,17.57,0.00,16.44,3.66,0.00,0.00,0.00,0.00,22.58,1.41,0.00,6.96,23.07,0.00,19.67,2.97,10.52,0.00,0.00,1.30
1,44.28,51.90,16.00,17.14,19.36,0.00,0.00,3.54,41.36,10.26,0.00,17.05,17.24,0.00,15.07,3.58,0.00,0.00,0.00,0.00,22.38,1.41,0.00,6.96,23.57,0.00,21.31,3.01,10.55,0.00,0.00,1.32
1,42.57,49.37,16.00,16.31,19.55,0.00,0.00,3.52,41.00,10.26,0.00,16.94,17.36,0.00,15.07,3.69,0.00,0.00,0.00,0.00,21.87,1.41,0.00,6.85,22.87,0.00,18.03,2.94,10.24,0.00,0.00,1.28
1,42.83,48.10,16.00,16.14,20.05,0.00,0.00,3.62,41.11,10.26,0.00,17.33,17.33,0.00,16.44,3.65,0.00,0.00,0.00,0.00,21.30,1.41,0.00,6.68,23.20,0.00,18.03,3.04,10.49,0.00,0.00,1.35
1,41.26,44.30,14.00,15.43,20.45,0.00,0.00,3.68,41.01,10.26,0.00,17.61,17.59,0.00,17.81,3.73,0.00,0.00,0.00,0.00,20.42,1.41,0.00,6.40,23.19,0.00,18.03,2.97,9.88,0.00,0.00,1.10
1,39.55,39.24,12.00,14.32,20.93,0.00,0.00,3.80,42.50,12.82,0.00,18.93,17.52,0.00,17.81,3.74,0.00,0.00,0.00,0.00,20.21,1.41,0.00,6.33,23.76,0.00,18.03,3.00,10.22,0.00,0.00,1.22
1,39.96,40.51,12.00,14.39,21.14,0.00,0.00,3.91,41.73,12.82,0.00,18.23,17.39,0.00,16.44,3.75,0.00,0.00,0.00,0.00,19.44,1.41,0.00,5.91,23.43,0.00,18.03,2.89,9.64,0.00,0.00,1.14
1,40.73,43.04,12.00,14.80,21.01,0.00,0.00,3.91,41.77,10.26,0.00,18.09,17.28,0.00,16.44,3.84,0.00,0.00,0.00,0.00,19.89,1.41,0.00,6.14,23.85,0.00,19.67,2.89,9.63,0.00,0.00,1.15
1,41.29,43.04,12.00,15.33,20.75,0.00,0.00,3.77,41.18,10.26,0.00,17.26,17.50,0.00,16.44,3.93,0.00,0.00,0.00,0.00,20.95,2.82,0.00,6.61,24.29,0.00,19.67,2.96,9.29,0.00,0.00,1.11
1,41.97,44.30,12.00,16.30,21.01,0.00,0.00,3.87,40.15,10.26,0.00,16.88,16.36,0.00,13.70,3.61,0.00,0.00,0.00,0.00,21.27,2.82,0.00,6.72,24.65,0.00,22.95,2.93,9.73,0.00,0.00,1.22
1,40.82,43.04,12.00,16.06,20.77,0.00,0.00,3.91,39.92,10.26,0.00,16.44,15.75,0.00,12.33,3.39,0.00,0.00,0.00,0.00,21.21,2.82,0.00,6.71,25.01,0.00,22.95,3.01,9.47,0.00,0.00,1.18
1,41.08,43.04,16.00,16.27,20.11,0.00,0.00,3.73,39.78,7.69,0.00,15.35,14.97,0.00,10.96,3.13,0.00,0.00,0.00,0.00,21.18,2.82,0.00,6.59,23.68,0.00,19.67,2.73,10.30,0.00,0.00,1.33
1,38.54,39.24,14.00,14.83,20.49,0.00,0.00,4.04,40.15,10.26,0.00,16.16,14.84,0.00,9.59,3.13,0.00,0.00,0.00,0.00,21.13,2.82,0.00,6.60,23.76,0.00,21.31,2.69,10.68,0.00,0.00,1.38
1,38.31,39.24,14.00,14.69,19.39,0.00,0.00,3.54,38.89,7.69,0.00,15.41,14.89,0.00,9.59,3.17,0.00,0.00,0.00,0.00,20.90,2.82,0.00,6.42,23.64,0.00,21.31,2.63,10.56,0.00,0.00,1.37
1,38.45,41.77,14.00,14.75,18.75,0.00,0.00,3.56,39.33,10.26,0.00,16.41,15.26,0.00,9.59,3.28,0.00,0.00,0.00,0.00,19.89,1.41,0.00,5.04,23.67,0.00,19.67,2.65,10.51,0.00,0.00,1.36
1,38.70,40.51,14.00,14.72,18.36,0.00,0.00,3.35,39.23,10.26,0.00,16.29,15.60,0.00,10.96,3.39,0.00,0.00,0.00,0.00,19.21,1.41,0.00,4.74,23.99,0.00,19.67,2.76,10.68,0.00,0.00,1.36
1,38.82,40.51,12.00,14.60,17.97,0.00,0.00,3.24,40.30,15.38,0.00,17.27,15.89,0.00,12.33,3.53,0.00,0.00,0.00,0.00,19.02,1.41,0.00,4.70,24.53,0.00,19.67,2.93,11.77,0.00,0.00,1.78
1,39.91,40.51,12.00,15.77,17.66,0.00,0.00,3.20,41.01,15.38,0.00,18.71,16.16,0.00,12.33,3.68,0.00,0.00,0.00,0.00,19.32,2.82,0.00,4.78,23.79,0.00,18.03,2.82,11.68,0.00,0.00,1.83
1,40.10,41.77,12.00,15.52,18.46,0.00,0.00,3.52,42.62,15.38,0.00,20.44,16.36,0.00,12.33,3.82,0.00,0.00,0.00,0.00,18.99,2.82,0.00,4.95,24.96,0.00,19.67,3.07,11.53,0.00,0.00,1.80
1,41.06,41.77,14.00,15.95,18.43,0.00,0.00,3.52,43.31,15.38,0.00,21.10,16.45,0.00,12.33,3.96,0.00,0.00,0.00,0.00,20.19,4.23,0.00,5.65,24.95,0.00,18.03,3.06,11.47,0.00,0.00,1.80
1,41.06,40.51,12.00,16.09,18.38,0.00,0.00,3.66,42.32,15.38,0.00,20.39,16.69,0.00,13.70,4.14,0.00,0.00,0.00,0.00,19.59,4.23,0.00,5.64,25.42,0.00,18.03,3.23,11.41,0.00,0.00,1.83
1,41.77,40.51,14.00,16.63,18.85,0.00,0.00,3.74,42.91,17.95,0.00,21.00,16.83,0.00,15.07,4.20,0.00,0.00,0.00,0.00,19.79,4.23,0.00,5.63,25.28,0.00,18.03,3.15,10.92,0.00,0.00,1.67
1,39.57,35.44,10.00,15.79,18.32,0.00,0.00,3.49,42.84,17.95,0.00,20.85,16.74,0.00,15.07,4.11,0.00,0.00,0.00,0.00,20.13,4.23,0.00,5.84,25.60,0.00,18.03,3.26,10.88,0.00,0.00,1.66
1,39.18,35.44,8.00,15.06,18.78,0.00,0.00,3.51,43.54,17.95,0.00,21.52,16.44,0.00,15.07,3.98,0.00,0.00,0.00,0.00,20.35,4.23,0.00,5.79,25.70,0.00,18.03,3.36,10.81,0.00,0.00,1.64
1,40.05,37.97,10.00,15.29,18.09,0.00,0.00,3.39,43.33,17.95,0.00,22.05,16.63,0.00,15.07,4.09,0.00,0.00,0.00,0.00,20.93,4.23,0.00,6.01,25.22,0.00,18.03,3.29,10.48,0.00,0.00,1.60
1,41.30,37.97,10.00,16.66,18.03,0.00,0.00,3.45,42.42,17.95,0.00,21.66,16.65,0.00,15.07,4.07,0.00,0.00,0.00,0.00,20.84,4.23,0.00,6.04,25.76,0.00,18.03,3.37,10.31,0.00,0.00,1.53
1,41.77,39.24,10.00,17.01,17.23,0.00,0.00,3.20,40.94,15.38,0.00,20.35,16.84,0.00,17.81,4.05,0.00,0.00,0.00,0.00,21.60,4.23,0.00,6.23,26.41,0.00,19.67,3.59,9.98,0.00,0.00,1.45
1,41.99,40.51,10.00,17.45,17.17,0.00,0.00,3.18,42.10,17.95,0.00,21.13,17.05,0.00,19.18,4.04,0.00,0.00,0.00,0.00,21.72,4.23,0.00,6.39,25.81,0.00,18.03,3.44,10.02,0.00,0.00,1.45
1,42.66,41.77,12.00,17.73,17.67,0.00,0.00,3.23,40.95,17.95,0.00,20.72,16.55,0.00,17.81,3.86,0.00,0.00,0.00,0.00,22.03,4.23,0.00,6.43,25.85,0.00,18.03,3.53,10.01,0.00,0.00,1.43
1,43.74,43.04,14.00,18.31,18.77,0.00,0.00,3.48,41.84,17.95,0.00,21.01,16.29,0.00,16.44,3.73,0.00,0.00,0.00,0.00,21.00,2.82,0.00,6.13,25.49,0.00,16.39,3.45,11.26,0.00,0.00,1.81
1,41.48,41.77,14.00,16.73,18.59,0.00,0.00,3.50,41.04,15.38,0.00,20.03,16.90,0.00,17.81,3.77,0.00,0.00,0.00,0.00,21.68,5.63,0.00,6.70,25.59,0.00,14.75,3.63,11.21,0.00,0.00,1.77
1,42.29,41.77,14.00,16.88,19.03,0.00,0.00,3.56,41.47,15.38,0.00,19.96,17.52,0.00,19.18,3.92,0.00,0.00,0.00,0.00,22.37,5.63,0.00,7.24,25.87,0.00,16.39,3.68,11.43,0.00,0.00,1.77
1,41.94,43.04,12.00,16.85,19.73,0.00,0.00,3.70,41.55,17.95,0.00,19.99,17.66,0.00,20.55,3.84,0.00,0.00,0.00,0.00,22.99,5.63,0.00,7.46,27.47,0.00,21.31,4.03,11.24,0.00,0.00,1.72
1,43.13,44.30,12.00,17.17,19.11,0.00,0.00,3.48,40.00,15.38,0.00,18.66,17.50,0.00,20.55,3.70,0.00,0.00,0.00,0.00,22.86,5.63,0.00,7.35,27.49,0.00,22.95,4.05,10.87,0.00,0.00,1.65
1,43.52,44.30,12.00,17.29,19.40,0.00,0.00,3.50,39.52,15.38,0.00,18.35,17.58,0.00,20.55,3.67,0.00,0.00,0.00,0.00,22.82,5.63,0.00,7.32,28.51,0.00,21.31,4.47,11.14,0.00,0.00,1.72
1,43.04,41.77,12.00,17.11,19.33,0.00,0.00,3.36,38.54,12.82,0.00,17.88,17.56,0.00,21.92,3.63,0.00,0.00,0.00,0.00,22.24,5.63,0.00,7.15,28.24,0.00,21.31,4.41,10.74,0.00,0.00,1.65
1,43.16,43.04,12.00,17.12,19.19,0.00,0.00,3.28,38.65,12.82,0.00,17.87,17.60,0.00,20.55,3.65,0.00,0.00,0.00,0.00,22.04,5.63,0.00,7.04,28.59,0.00,24.59,4.42,10.91,0.00,0.00,1.71
1,44.96,43.04,14.00,18.58,19.21,0.00,0.00,3.34,37.49,10.26,0.00,17.58,17.52,0.00,19.18,3.55,0.00,0.00,0.00,0.00,22.24,5.63,0.00,7.08,28.36,0.00,24.59,4.21,10.10,0.00,0.00,1.47
1,44.08,41.77,16.00,18.48,19.39,0.00,0.00,3.45,36.35,7.69,0.00,15.31,17.63,0.00,20.55,3.52,0.00,0.00,0.00,0.00,21.93,5.63,0.00,6.87,28.81,0.00,24.59,4.24,9.95,0.00,0.00,1.31
1,44.76,39.24,18.00,19.18,18.68,0.00,0.00,3.25,35.79,7.69,0.00,14.11,17.48,0.00,20.55,3.36,0.00,0.00,0.00,0.00,22.32,5.63,0.00,6.88,28.69,0.00,26.23,4.21,9.59,0.00,0.00,1.25
1,46.07,40.51,20.00,20.42,18.62,0.00,0.00,3.20,36.38,7.69,0.00,13.97,17.57,0.00,23.29,3.21,0.00,0.00,0.00,0.00,21.40,4.23,0.00,6.62,28.88,0.00,26.23,4.37,9.66,0.00,0.00,1.25
1,43.53,37.97,18.00,18.70,18.06,0.00,0.00,2.88,37.00,7.69,0.00,13.81,17.04,0.00,20.55,2.76,0.00,0.00,0.00,0.00,20.68,4.23,0.00,6.08,28.40,0.00,26.23,4.21,9.51,0.00,0.00,1.22
1,42.76,36.71,16.00,18.04,17.93,0.00,0.00,2.91,35.71,5.13,0.00,12.63,16.68,0.00,19.18,2.55,0.00,0.00,0.00,0.00,20.92,4.23,0.00,6.43,28.03,0.00,26.23,4.04,9.70,0.00,0.00,1.22
1,43.97,40.51,16.00,19.00,17.61,0.00,0.00,2.81,36.89,5.13,0.00,12.86,17.04,0.00,20.55,2.65,0.00,0.00,0.00,0.00,21.51,5.63,0.00,6.98,28.13,0.00,26.23,4.05,9.91,0.00,0.00,1.28
1,44.83,41.77,16.00,19.86,17.66,0.00,0.00,2.85,36.44,5.13,0.00,12.36,17.22,0.00,20.55,2.68,0.00,0.00,0.00,0.00,21.78,5.63,0.00,7.05,27.66,0.00,24.59,3.89,9.94,0.00,0.00,1.28
1,44.83,41.77,16.00,19.93,17.89,0.00,0.00,2.98,36.11,5.13,0.00,11.96,17.07,0.00,19.18,2.63,0.00,0.00,0.00,0.00,21.56,5.63,0.00,7.08,27.64,0.00,24.59,3.79,10.27,0.00,0.00,1.34
1,42.91,37.97,14.00,18.32,17.47,0.00,0.00,2.87,36.22,5.13,0.00,11.79,16.71,0.00,17.81,2.55,0.00,0.00,0.00,0.00,22.04,5.63,0.00,7.20,27.53,0.00,26.23,3.79,10.52,0.00,0.00,1.35
1,44.59,41.77,18.00,19.09,17.02,0.00,0.00,2.77,37.74,10.26,0.00,12.92,16.19,0.00,15.07,2.38,0.00,0.00,0.00,0.00,22.72,5.63,0.00,7.40,27.48,0.00,26.23,3.60,11.28,0.00,0.00,1.79
1,44.74,41.77,18.00,19.02,17.07,0.00,0.00,2.78,37.84,7.69,0.00,12.74,15.98,0.00,13.70,2.33,0.00,0.00,0.00,0.00,22.74,5.63,0.00,7.20,27.76,0.00,27.87,3.65,11.42,0.00,0.00,1.87
1,43.91,37.97,16.00,19.07,16.48,0.00,0.00,2.68,37.57,7.69,0.00,12.42,16.48,0.00,16.44,2.45,0.00,0.00,0.00,0.00,22.28,5.63,0.00,7.08,27.81,0.00,27.87,3.57,11.66,0.00,0.00,1.88
1,43.62,36.71,16.00,19.01,16.02,0.00,0.00,2.61,37.95,7.69,0.00,12.62,16.12,0.00,16.44,2.36,0.00,0.00,0.00,0.00,22.99,5.63,0.00,7.40,28.19,0.00,29.51,3.99,10.77,0.00,0.00,1.60
1,44.53,39.24,16.00,19.48,15.80,0.00,0.00,2.48,37.79,7.69,0.00,12.63,16.29,0.00,17.81,2.42,0.00,0.00,0.00,0.00,23.56,5.63,0.00,7.63,27.85,0.00,29.51,3.86,10.39,0.00,0.00,1.51
1,45.09,40.51,16.00,19.72,15.32,0.00,0.00,2.30,37.47,7.69,0.00,12.94,16.48,0.00,17.81,2.40,0.00,0.00,0.00,0.00,22.26,4.23,0.00,6.51,27.65,0.00,27.87,3.79,10.27,0.00,0.00,1.51
1,45.27,40.51,16.00,19.86,16.41,0.00,0.00,2.73,35.89,5.13,0.00,12.03,16.02,0.00,16.44,2.30,0.00,0.00,0.00,0.00,22.67,4.23,0.00,6.74,26.83,0.00,24.59,3.64,10.12,0.00,0.00,1.52
1,44.97,40.51,14.00,20.11,17.25,0.00,0.00,2.85,35.11,5.13,0.00,11.78,16.22,0.00,16.44,2.39,0.00,0.00,0.00,0.00,23.06,7.04,0.00,7.59,26.47,0.00,21.31,3.53,10.28,0.00,0.00,1.59
1,44.50,39.24,14.00,19.85,17.38,0.00,0.00,3.09,34.72,5.13,0.00,11.11,16.63,0.00,19.18,2.44,0.00,0.00,0.00,0.00,22.98,7.04,0.00,7.65,26.57,0.00,24.59,3.43,10.33,0.00,0.00,1.62
1,45.66,41.77,14.00,20.35,17.25,0.00,0.00,3.13,35.13,5.13,0.00,11.27,16.25,0.00,17.81,2.31,0.00,0.00,0.00,0.00,24.08,8.45,0.00,8.18,26.94,0.00,26.23,3.40,10.38,0.00,0.00,1.57
1,46.31,40.51,16.00,20.93,18.01,0.00,0.00,3.30,34.93,5.13,0.00,11.33,16.46,0.00,20.55,2.30,0.00,0.00,0.00,0.00,24.39,8.45,0.00,8.26,27.27,0.00,24.59,3.61,10.67,0.00,0.00,1.69
1,45.08,39.24,14.00,19.91,18.23,0.00,0.00,3.43,36.07,5.13,0.00,12.13,16.22,0.00,20.55,2.31,0.00,0.00,0.00,0.00,24.63,8.45,0.00,8.39,27.04,0.00,22.95,3.59,10.52,0.00,0.00,1.65
1,44.16,39.24,12.00,18.98,17.84,0.00,0.00,3.27,36.33,5.13,0.00,12.62,16.36,0.00,20.55,2.41,0.00,0.00,0.00,0.00,24.53,8.45,0.00,8.37,26.94,0.00,22.95,3.64,10.87,0.00,0.00,1.76
1,43.02,39.24,10.00,18.15,18.14,0.00,0.00,3.31,35.37,5.13,0.00,11.99,16.59,0.00,23.29,2.50,0.00,0.00,0.00,0.00,24.38,7.04,0.00,8.64,27.01,0.00,21.31,3.67,11.26,0.00,0.00,1.82
1,41.25,36.71,8.00,15.94,18.45,0.00,0.00,3.34,36.33,7.69,0.00,13.14,16.54,0.00,21.92,2.50,0.00,0.00,0.00,0.00,23.85,7.04,0.00,8.10,26.09,0.00,18.03,3.56,11.23,0.00,0.00,1.83
1,43.42,40.51,8.00,17.25,19.14,0.00,0.00,3.50,36.06,7.69,0.00,13.29,16.54,0.00,23.29,2.51,0.00,0.00,0.00,0.00,24.79,7.04,0.00,8.43,25.67,0.00,18.03,3.32,11.94,0.00,0.00,2.10
1,44.29,43.04,10.00,18.34,19.46,0.00,0.00,3.64,36.34,7.69,0.00,13.34,16.17,0.00,23.29,2.52,0.00,0.00,0.00,0.00,24.77,7.04,0.00,8.42,26.48,0.00,19.67,3.50,12.05,0.00,0.00,2.12
1,45.42,44.30,14.00,18.43,19.74,0.00,0.00,3.71,36.05,7.69,0.00,13.39,15.87,0.00,21.92,2.46,0.00,0.00,0.00,0.00,24.83,7.04,0.00,8.04,26.61,0.00,21.31,3.49,12.56,0.00,0.00,2.38
1,44.65,43.04,14.00,17.70,19.71,0.00,0.00,3.70,36.34,7.69,0.00,13.63,16.29,0.00,23.29,2.60,0.00,0.00,0.00,0.00,25.20,7.04,0.00,8.04,27.24,0.00,22.95,3.59,13.08,0.00,0.00,2.57
1,45.31,44.30,14.00,18.27,19.74,0.00,0.00,3.65,36.80,7.69,0.00,13.45,16.21,0.00,23.29,2.54,0.00,0.00,0.00,0.00,25.01,7.04,0.00,7.94,27.20,0.00,22.95,3.64,12.78,0.00,0.00,2.51
1,44.98,44.30,14.00,18.27,20.14,0.00,0.00,3.72,36.71,7.69,0.00,13.37,16.49,0.00,23.29,2.62,0.00,0.00,0.00,0.00,24.54,7.04,0.00,7.77,27.61,0.00,22.95,3.71,13.09,0.00,0.00,2.58
1,45.12,44.30,10.00,18.15,20.95,0.00,0.00,3.86,34.64,2.56,0.00,11.98,16.78,0.00,24.66,2.63,0.00,0.00,0.00,0.00,24.42,7.04,0.00,7.91,27.11,0.00,19.67,3.67,12.62,0.00,0.00,2.24
1,45.87,45.57,10.00,19.12,20.58,0.00,0.00,3.79,34.58,2.56,0.00,12.10,17.13,0.00,24.66,2.80,0.00,0.00,0.00,0.00,24.39,8.45,0.00,8.13,26.84,0.00,18.03,3.64,12.56,0.00,0.00,2.17
1,47.02,48.10,12.00,19.73,20.80,0.00,0.00,3.75,35.30,2.56,0.00,12.85,16.90,0.00,23.29,2.71,0.00,0.00,0.00,0.00,24.28,8.45,0.00,8.22,27.00,0.00,19.67,3.69,12.67,0.00,0.00,2.19
1,45.85,46.84,10.00,19.20,21.31,0.00,0.00,3.97,35.55,2.56,0.00,12.80,17.50,0.00,24.66,2.94,0.00,0.00,0.00,0.00,23.97,9.86,0.00,8.41,25.63,0.00,18.03,3.23,12.96,0.00,0.00,2.42
1,44.99,45.57,10.00,18.76,21.29,0.00,0.00,4.00,34.90,2.56,0.00,12.55,17.01,0.00,21.92,2.90,0.00,0.00,0.00,0.00,23.51,9.86,0.00,8.07,26.44,0.00,18.03,3.29,13.18,0.00,0.00,2.48
1,45.04,46.84,10.00,19.04,21.17,0.00,0.00,4.02,34.48,2.56,0.00,12.24,16.77,0.00,20.55,2.84,0.00,0.00,0.00,0.00,23.02,9.86,0.00,7.79,26.10,0.00,16.39,3.19,13.15,0.00,0.00,2.48
1,44.92,44.30,10.00,18.76,20.04,0.00,0.00,3.68,34.46,2.56,0.00,12.24,17.00,0.00,20.55,2.90,0.00,0.00,0.00,0.00,22.98,11.27,0.00,7.96,25.46,0.00,14.75,3.08,12.86,0.00,0.00,2.41
1,44.03,41.77,10.00,17.87,19.69,0.00,0.00,3.64,35.80,2.56,0.00,12.94,16.79,0.00,20.55,2.82,0.00,0.00,0.00,0.00,22.97,11.27,0.00,7.81,25.94,0.00,16.39,3.16,12.81,0.00,0.00,2.36
1,45.59,45.57,12.00,18.66,19.73,0.00,0.00,3.46,36.90,2.56,0.00,13.35,16.86,0.00,19.18,2.86,0.00,0.00,0.00,0.00,22.46,8.45,0.00,6.99,25.19,0.00,14.75,3.05,13.33,0.00,0.00,2.49
1,46.08,45.57,12.00,19.08,19.94,0.00,0.00,3.44,37.12,2.56,0.00,12.95,16.87,0.00,19.18,2.85,0.00,0.00,0.00,0.00,21.94,8.45,0.00,6.79,25.57,0.00,16.39,3.15,13.23,0.00,0.00,2.52
1,44.62,44.30,10.00,18.69,20.23,0.00,0.00,3.58,37.52,2.56,0.00,12.92,16.88,0.00,19.18,2.94,0.00,0.00,0.00,0.00,21.16,7.04,0.00,6.40,24.94,0.00,14.75,2.93,12.37,0.00,0.00,2.32
1,45.09,46.84,12.00,18.87,20.02,0.00,0.00,3.48,37.50,2.56,0.00,12.46,16.88,0.00,19.18,2.92,0.00,0.00,0.00,0.00,20.88,7.04,0.00,6.25,24.57,0.00,14.75,2.87,12.54,0.00,0.00,2.35
1,46.69,48.10,16.00,19.21,20.35,0.00,0.00,3.61,37.65,5.13,0.00,12.33,16.27,0.00,17.81,2.72,0.00,0.00,0.00,0.00,20.93,7.04,0.00,6.22,24.52,0.00,14.75,2.86,12.71,0.00,0.00,2.40
1,47.36,49.37,16.00,19.85,20.41,0.00,0.00,3.58,38.54,5.13,0.00,12.67,15.84,0.00,15.07,2.56,0.00,0.00,0.00,0.00,20.65,7.04,0.00,6.01,25.64,0.00,18.03,3.03,12.23,0.00,0.00,2.28
1,48.15,51.90,16.00,19.98,21.65,0.00,2.33,4.05,36.89,2.56,0.00,11.73,16.04,0.00,16.44,2.65,0.00,0.00,0.00,0.00,20.65,7.04,0.00,5.90,25.67,0.00,18.03,2.94,12.06,0.00,0.00,2.20
1,48.69,53.16,18.00,20.18,21.57,0.00,2.33,4.10,36.19,2.56,0.00,11.30,16.34,0.00,17.81,2.73,0.00,0.00,0.00,0.00,20.60,7.04,0.00,6.04,25.82,0.00,19.67,3.05,11.58,0.00,0.00,2.18
1,48.41,51.90,16.00,19.70,21.13,0.00,2.33,4.00,36.78,2.56,0.00,11.33,16.72,0.00,19.18,2.75,0.00,0.00,0.00,0.00,20.41,7.04,0.00,5.86,25.81,0.00,18.03,2.96,11.43,0.00,0.00,2.05
1,45.97,48.10,12.00,17.92,20.95,0.00,2.33,3.99,37.87,2.56,0.00,11.70,17.32,0.00,20.55,2.89,0.00,0.00,0.00,0.00,19.40,5.63,0.00,5.39,25.39,0.00,16.39,2.91,11.53,0.00,0.00,2.09
1,44.51,46.84,12.00,17.44,21.13,0.00,2.33,4.07,37.11,2.56,0.00,11.04,17.03,0.00,19.18,2.74,0.00,0.00,0.00,0.00,19.39,7.04,0.00,5.46,24.79,0.00,14.75,2.77,10.34,0.00,0.00,1.59
1,44.83,46.84,12.00,17.31,20.86,0.00,2.33,3.97,36.13,2.56,0.00,10.81,17.05,0.00,19.18,2.81,0.00,0.00,0.00,0.00,19.61,7.04,0.00,5.60,24.50,0.00,14.75,2.69,10.29,0.00,0.00,1.60
1,45.86,48.10,12.00,17.57,21.28,0.00,2.33,4.00,36.61,2.56,0.00,11.07,16.66,0.00,17.81,2.75,0.00,0.00,0.00,0.00,19.51,7.04,0.00,5.67,24.81,0.00,14.75,2.79,10.50,0.00,0.00,1.61
1,45.51,49.37,12.00,17.31,21.03,0.00,2.33,3.99,37.42,2.56,0.00,11.14,16.66,0.00,16.44,2.86,0.00,0.00,0.00,0.00,19.30,7.04,0.00,5.64,24.87,0.00,14.75,2.72,10.73,0.00,0.00,1.61
1,44.78,48.10,12.00,16.38,21.20,0.00,2.33,4.02,39.15,2.56,0.00,11.94,16.40,0.00,16.44,2.78,0.00,0.00,0.00,0.00,19.02,7.04,0.00,5.45,24.88,0.00,14.75,2.69,10.60,0.00,0.00,1.63
1,43.02,45.57,10.00,15.30,21.56,0.00,2.33,4.08,39.88,2.56,0.00,11.66,16.64,0.00,17.81,2.79,0.00,0.00,0.00,0.00,19.16,5.63,0.00,5.28,24.98,0.00,13.11,2.72,10.76,0.00,0.00,1.66
1,45.18,48.10,14.00,16.66,20.67,0.00,2.33,3.80,40.16,2.56,0.00,11.76,15.88,0.00,15.07,2.55,0.00,0.00,0.00,0.00,19.48,5.63,0.00,5.49,25.18,0.00,14.75,2.74,10.39,0.00,0.00,1.44
1,45.17,46.84,14.00,16.68,20.83,0.00,2.33,3.82,40.65,2.56,0.00,12.18,15.70,0.00,15.07,2.50,0.00,0.00,0.00,0.00,19.86,5.63,0.00,5.58,25.10,0.00,14.75,2.76,10.60,0.00,0.00,1.56
1,45.34,45.57,14.00,16.37,20.84,0.00,2.33,3.78,40.65,2.56,0.00,12.07,15.64,0.00,15.07,2.48,0.00,0.00,0.00,0.00,20.01,5.63,0.00,5.67,24.98,0.00,16.39,2.72,10.70,0.00,0.00,1.53
1,44.90,45.57,14.00,15.77,20.96,0.00,2.33,3.85,42.74,5.13,0.00,12.95,16.05,0.00,16.44,2.53,0.00,0.00,0.00,0.00,19.76,4.23,0.00,5.37,25.08,0.00,16.39,2.69,11.08,0.00,0.00,1.67
1,45.33,48.10,14.00,16.53,21.21,0.00,2.33,4.00,41.41,5.13,0.00,12.21,16.13,0.00,17.81,2.53,0.00,0.00,0.00,0.00,19.03,2.82,0.00,5.09,24.84,0.00,16.39,2.67,11.03,0.00,0.00,1.64
1,45.20,46.84,12.00,16.69,20.83,0.00,2.33,3.91,40.78,5.13,0.00,11.79,15.91,0.00,17.81,2.44,0.00,0.00,0.00,0.00,18.95,2.82,0.00,5.02,24.16,0.00,14.75,2.45,10.45,0.00,0.00,1.46
1,43.79,44.30,12.00,15.61,20.91,0.00,2.33,3.92,40.86,5.13,0.00,12.08,16.23,0.00,19.18,2.55,0.00,0.00,0.00,0.00,18.84,2.82,0.00,5.15,24.81,0.00,18.03,2.53,10.49,0.00,0.00,1.45
1,43.67,44.30,12.00,15.53,21.17,0.00,2.33,4.00,39.33,5.13,0.00,11.51,15.97,0.00,17.81,2.39,0.00,0.00,0.00,0.00,18.80,2.82,0.00,5.13,24.26,0.00,16.39,2.47,10.46,0.00,0.00,1.44
1,44.99,46.84,12.00,16.55,21.74,0.00,2.33,4.24,40.18,5.13,0.00,11.97,15.91,0.00,17.81,2.38,0.00,0.00,0.00,0.00,19.76,2.82,0.00,5.52,24.72,0.00,18.03,2.55,11.53,0.00,0.00,1.66
1,43.41,43.04,8.00,15.47,22.35,0.00,2.33,4.55,39.10,2.56,0.00,11.54,15.99,0.00,16.44,2.42,0.00,0.00,0.00,0.00,19.66,2.82,0.00,5.41,25.02,0.00,19.67,2.56,11.17,0.00,0.00,1.67
1,42.32,40.51,8.00,14.88,22.00,0.00,2.33,4.48,38.81,2.56,0.00,11.58,16.62,0.00,19.18,2.55,0.00,0.00,0.00,0.00,20.39,4.23,0.00,5.90,24.36,0.00,18.03,2.48,11.30,0.00,0.00,1.71
1,42.29,41.77,8.00,14.77,20.19,0.00,0.00,3.88,37.83,2.56,0.00,10.97,16.00,0.00,16.44,2.45,0.00,0.00,0.00,0.00,20.27,4.23,0.00,5.87,23.57,0.00,16.39,2.45,11.51,0.00,0.00,1.73
1,40.44,37.97,6.00,14.09,20.96,0.00,0.00,4.23,37.34,2.56,0.00,10.25,15.54,0.00,13.70,2.39,0.00,0.00,0.00,0.00,19.95,4.23,0.00,5.69,22.94,0.00,14.75,2.31,11.09,0.00,0.00,1.56
1,40.54,37.97,6.00,14.07,21.07,0.00,0.00,4.29,38.11,5.13,0.00,11.12,16.19,0.00,16.44,2.59,0.00,0.00,0.00,0.00,20.63,4.23,0.00,5.93,23.56,0.00,14.75,2.43,11.55,0.00,0.00,1.68
1,41.07,37.97,6.00,14.54,21.80,0.00,0.00,4.40,36.97,5.13,0.00,10.82,15.35,0.00,13.70,2.49,0.00,0.00,0.00,0.00,20.35,4.23,0.00,5.92,23.97,0.00,14.75,2.49,11.44,0.00,0.00,1.67
1,41.65,36.71,6.00,14.18,21.45,0.00,0.00,4.25,36.91,5.13,0.00,10.71,15.47,0.00,15.07,2.57,0.00,0.00,0.00,0.00,19.86,2.82,0.00,5.62,23.93,0.00,14.75,2.52,11.46,0.00,0.00,1.69
1,43.37,39.24,10.00,15.90,22.01,0.00,0.00,4.38,36.52,5.13,0.00,10.61,15.35,0.00,15.07,2.46,0.00,0.00,0.00,0.00,20.66,4.23,0.00,6.03,24.96,0.00,18.03,2.68,11.53,0.00,0.00,1.68
1,42.44,39.24,10.00,15.34,21.59,0.00,0.00,4.43,37.07,5.13,0.00,10.86,15.73,0.00,17.81,2.47,0.00,0.00,0.00,0.00,20.39,4.23,0.00,5.83,25.41,0.00,21.31,2.66,11.35,0.00,0.00,1.67
1,42.25,37.97,10.00,15.33,21.23,0.00,0.00,4.32,37.10,5.13,0.00,10.64,15.65,0.00,17.81,2.40,0.00,0.00,0.00,0.00,20.22,4.23,0.00,5.74,25.19,0.00,21.31,2.68,11.01,0.00,0.00,1.59
1,40.48,34.18,10.00,14.85,21.16,0.00,0.00,4.33,36.54,7.69,0.00,9.72,15.71,0.00,19.18,2.43,0.00,0.00,0.00,0.00,19.98,4.23,0.00,5.62,24.77,0.00,21.31,2.65,11.20,0.00,0.00,1.58
1,40.29,34.18,10.00,14.73,20.93,0.00,0.00,4.33,36.84,10.26,0.00,10.36,15.52,0.00,19.18,2.39,0.00,0.00,0.00,0.00,19.77,4.23,0.00,5.57,24.96,0.00,21.31,2.71,11.34,0.00,0.00,1.69
1,39.52,31.65,8.00,14.33,21.71,0.00,0.00,4.64,37.16,10.26,0.00,11.00,15.56,0.00,19.18,2.37,0.00,0.00,0.00,0.00,19.04,4.23,0.00,5.13,24.63,0.00,21.31,2.65,11.79,0.00,0.00,1.81
1,37.90,30.38,6.00,12.79,22.44,0.00,0.00,4.78,37.62,10.26,0.00,11.29,15.55,0.00,19.18,2.36,0.00,0.00,0.00,0.00,18.06,2.82,0.00,4.68,25.34,0.00,22.95,2.82,12.13,0.00,0.00,1.91
1,37.44,30.38,6.00,12.61,22.51,0.00,0.00,4.90,37.84,10.26,0.00,11.21,15.47,0.00,19.18,2.44,0.00,0.00,0.00,0.00,18.09,2.82,0.00,4.71,25.86,0.00,24.59,3.06,12.44,0.00,0.00,2.08
1,37.20,30.38,6.00,12.55,22.64,0.00,0.00,4.98,36.59,7.69,0.00,10.67,15.43,0.00,17.81,2.49,0.00,0.00,0.00,0.00,18.12,2.82,0.00,4.77,25.94,0.00,24.59,3.07,12.14,0.00,0.00,1.99
1,36.67,30.38,6.00,11.99,22.27,0.00,0.00,4.84,37.42,7.69,0.00,11.28,15.44,0.00,19.18,2.49,0.00,0.00,0.00,0.00,18.58,2.82,0.00,4.93,25.47,0.00,22.95,3.07,12.12,0.00,0.00,1.98
1,35.58,29.11,6.00,11.31,22.29,0.00,0.00,4.78,38.18,7.69,0.00,11.80,14.99,0.00,17.81,2.42,0.00,0.00,0.00,0.00,18.43,2.82,0.00,4.93,26.25,0.00,24.59,3.28,12.47,0.00,0.00,2.06
1,35.68,30.38,6.00,11.36,21.75,0.00,0.00,4.68,39.29,7.69,0.00,13.12,14.73,0.00,16.44,2.35,0.00,0.00,0.00,0.00,17.68,2.82,0.00,4.70,25.68,0.00,19.67,3.24,12.25,0.00,0.00,2.01
1,35.96,30.38,6.00,11.41,21.76,0.00,0.00,4.79,41.40,10.26,0.00,15.14,14.45,0.00,15.07,2.36,0.00,0.00,0.00,0.00,17.67,2.82,0.00,4.63,26.61,0.00,24.59,3.36,12.75,0.00,0.00,2.13
1,33.77,25.32,4.00,9.80,21.60,0.00,0.00,4.60,42.56,10.26,0.00,15.74,15.00,0.00,16.44,2.52,0.00,0.00,0.00,0.00,17.14,2.82,0.00,4.41,26.12,0.00,22.95,3.26,12.54,0.00,0.00,2.14
1,33.69,24.05,4.00,9.88,19.87,0.00,0.00,3.96,40.98,10.26,0.00,14.94,14.90,0.00,16.44,2.50,0.00,0.00,0.00,0.00,17.26,2.82,0.00,4.42,25.80,0.00,22.95,3.27,11.59,0.00,0.00,1.81
1,34.44,25.32,4.00,10.14,20.64,0.00,0.00,4.12,41.13,10.26,0.00,15.04,14.65,0.00,13.70,2.44,0.00,0.00,0.00,0.00,16.63,1.41,0.00,4.03,26.11,0.00,22.95,3.27,11.39,0.00,0.00,1.80
1,33.46,21.52,4.00,9.72,21.04,0.00,0.00,4.30,41.34,10.26,0.00,15.17,14.78,0.00,13.70,2.42,0.00,0.00,0.00,0.00,16.65,1.41,0.00,4.01,26.02,0.00,22.95,3.18,11.43,0.00,0.00,1.77
1,33.95,24.05,4.00,9.88,20.51,0.00,0.00,4.26,41.31,10.26,0.00,15.26,14.62,0.00,13.70,2.39,0.00,0.00,0.00,0.00,16.04,1.41,0.00,3.79,25.43,0.00,22.95,3.13,11.30,0.00,0.00,1.76
1,36.82,26.58,6.00,14.78,20.37,0.00,0.00,3.89,40.79,7.69,0.00,14.86,17.58,2.44,17.81,3.60,0.00,0.00,0.00,0.00,16.17,4.23,0.00,4.19,24.62,0.00,22.95,3.06,11.17,0.00,0.00,1.76
1,39.54,29.11,8.00,17.28,19.96,0.00,0.00,3.76,41.41,7.69,0.00,15.04,18.73,2.44,21.92,4.31,0.00,0.00,0.00,0.00,16.37,5.63,0.00,4.42,25.68,0.00,29.51,3.23,11.28,0.00,0.00,1.78
1,43.03,32.91,14.00,22.50,21.51,0.00,0.00,4.29,41.01,7.69,0.00,14.96,18.62,2.44,23.29,4.27,0.00,0.00,0.00,0.00,17.47,7.04,0.00,5.02,26.11,0.00,31.15,3.47,11.33,0.00,0.00,1.77
1,41.49,29.11,12.00,21.85,21.87,0.00,0.00,4.53,40.00,7.69,0.00,14.85,18.69,2.44,23.29,4.34,0.00,0.00,0.00,0.00,18.82,8.45,1.96,6.53,25.37,0.00,27.87,3.57,11.11,0.00,0.00,1.74
1,43.28,31.65,16.00,23.08,22.49,0.00,0.00,4.74,40.41,7.69,0.00,15.11,18.94,2.44,21.92,4.57,0.00,0.00,0.00,0.00,18.39,8.45,1.96,6.48,25.35,0.00,26.23,3.55,10.94,0.00,0.00,1.73
1,45.38,36.71,18.00,25.24,22.19,0.00,0.00,4.68,40.27,7.69,0.00,15.52,19.39,2.44,21.92,4.90,0.00,0.00,0.00,0.00,18.64,8.45,1.96,6.46,24.75,0.00,26.23,3.44,10.67,0.00,0.00,1.69
1,48.56,40.51,20.00,27.45,22.45,0.00,0.00,4.74,39.56,7.69,0.00,15.52,19.65,2.44,21.92,5.06,0.00,0.00,0.00,0.00,20.57,11.27,1.96,7.44,24.59,0.00,26.23,3.42,10.33,0.00,0.00,1.66
1,49.43,40.51,20.00,28.25,22.22,0.00,0.00,4.66,37.73,2.56,0.00,14.79,20.15,2.44,23.29,5.28,0.00,0.00,0.00,0.00,20.10,11.27,1.96,7.28,23.99,0.00,26.23,3.34,9.48,0.00,0.00,1.45
1,50.47,43.04,20.00,29.23,21.77,0.00,0.00,4.41,36.50,2.56,0.00,14.19,20.76,2.44,24.66,5.46,0.00,0.00,0.00,0.00,20.42,11.27,1.96,7.34,24.33,0.00,24.59,3.40,8.87,0.00,0.00,1.40
1,51.86,45.57,20.00,29.87,21.08,0.00,0.00,4.34,35.08,2.56,0.00,13.39,20.78,2.44,24.66,5.47,0.00,0.00,0.00,0.00,20.83,11.27,1.96,7.45,23.93,0.00,24.59,3.35,8.12,0.00,0.00,1.19
1,52.99,48.10,20.00,31.01,20.37,0.00,0.00,4.06,34.16,2.56,0.00,12.89,20.83,2.44,24.66,5.52,0.00,0.00,0.00,0.00,20.81,11.27,1.96,7.38,21.74,0.00,19.67,2.84,7.03,0.00,0.00,0.75
1,53.81,46.84,20.00,31.17,19.91,0.00,0.00,3.95,34.10,2.56,0.00,13.30,20.62,2.44,24.66,5.34,0.00,0.00,0.00,0.00,20.75,11.27,1.96,7.32,22.24,0.00,19.67,2.92,6.65,0.00,0.00,0.71
1,55.06,46.84,22.00,31.81,19.52,0.00,0.00,3.81,33.80,2.56,0.00,13.00,20.33,2.44,21.92,5.28,0.00,0.00,0.00,0.00,20.60,11.27,1.96,7.23,21.58,0.00,19.67,2.84,6.35,0.00,0.00,0.67
1,57.71,49.37,28.00,33.88,19.48,0.00,0.00,3.77,33.36,2.56,0.00,12.85,20.50,2.44,23.29,5.31,0.00,0.00,0.00,0.00,20.50,11.27,1.96,7.14,21.10,0.00,18.03,2.65,5.82,0.00,0.00,0.61
1,60.14,51.90,30.00,35.54,19.87,0.00,0.00,3.88,32.21,2.56,0.00,11.53,20.33,2.44,23.29,5.26,0.00,0.00,0.00,0.00,21.12,11.27,1.96,7.25,21.14,0.00,18.03,2.66,5.52,0.00,0.00,0.54
1,60.69,54.43,32.00,36.08,19.72,0.00,0.00,3.85,30.35,0.00,0.00,9.89,20.38,2.44,23.29,5.28,0.00,0.00,0.00,0.00,21.39,11.27,1.96,7.41,20.51,0.00,13.11,2.59,5.11,0.00,0.00,0.45
1,61.57,56.96,34.00,36.55,19.54,0.00,0.00,3.79,29.42,0.00,0.00,8.49,20.89,2.44,23.29,5.42,0.00,0.00,0.00,0.00,21.13,11.27,1.96,7.28,20.21,0.00,13.11,2.46,4.90,0.00,0.00,0.38
1,60.07,55.70,34.00,36.15,19.40,0.00,0.00,3.73,30.59,2.56,0.00,9.15,21.00,2.44,24.66,5.52,0.00,0.00,0.00,0.00,20.96,11.27,1.96,7.27,19.57,0.00,11.48,2.33,4.79,0.00,0.00,0.37
1,60.78,58.23,38.00,37.05,19.25,0.00,0.00,3.71,33.55,5.13,0.00,13.76,21.12,2.44,27.40,5.60,0.00,0.00,0.00,0.00,20.78,11.27,1.96,7.21,19.48,0.00,9.84,2.31,4.69,0.00,0.00,0.36
1,61.95,60.76,38.00,37.34,19.52,0.00,0.00,3.66,35.50,5.13,0.00,14.81,21.13,2.44,27.40,5.55,0.00,0.00,0.00,0.00,21.44,12.68,1.96,7.55,20.03,0.00,13.11,2.44,4.49,0.00,0.00,0.33
1,63.58,63.29,40.00,38.13,19.58,0.00,0.00,3.68,35.34,5.13,0.00,15.03,21.47,2.44,27.40,5.66,0.00,0.00,0.00,0.00,21.83,12.68,1.96,7.58,20.00,0.00,13.11,2.46,4.44,0.00,0.00,0.33
1,61.03,59.49,38.00,33.83,18.81,0.00,0.00,3.55,34.60,5.13,0.00,14.57,19.98,2.44,24.66,5.13,0.00,0.00,0.00,0.00,21.33,9.86,1.96,7.43,20.37,0.00,13.11,2.48,4.25,0.00,0.00,0.32
1,58.29,56.96,36.00,31.67,18.99,0.00,0.00,3.71,34.53,5.13,0.00,14.60,17.62,0.00,21.92,3.66,0.00,0.00,0.00,0.00,20.61,8.45,1.96,6.95,19.15,0.00,6.56,2.25,3.58,0.00,0.00,0.15
1,53.02,53.16,30.00,25.90,17.52,0.00,0.00,3.27,34.51,5.13,0.00,14.82,17.21,0.00,17.81,3.65,0.00,0.00,0.00,0.00,20.31,8.45,1.96,6.80,18.94,0.00,4.92,2.24,3.30,0.00,0.00,0.12
1,53.06,54.43,32.00,24.71,16.48,0.00,0.00,2.91,35.62,5.13,0.00,15.67,17.37,0.00,17.81,3.75,0.00,0.00,0.00,0.00,18.11,4.23,0.00,4.64,18.25,0.00,4.92,1.82,3.31,0.00,0.00,0.12
1,52.79,53.16,30.00,24.46,15.59,0.00,0.00,2.57,35.81,5.13,0.00,16.29,16.82,0.00,16.44,3.51,0.00,0.00,0.00,0.00,17.75,4.23,0.00,4.30,17.86,0.00,3.28,1.77,3.26,0.00,0.00,0.12
1,50.49,49.37,26.00,22.39,15.39,0.00,0.00,2.48,35.53,5.13,0.00,15.94,16.86,0.00,17.81,3.41,0.00,0.00,0.00,0.00,17.70,4.23,0.00,4.29,18.22,0.00,3.28,1.76,3.19,0.00,0.00,0.11
1,49.28,49.37,26.00,21.22,15.34,0.00,0.00,2.43,36.18,5.13,0.00,16.62,17.00,0.00,17.81,3.52,0.00,0.00,0.00,0.00,16.58,2.82,0.00,3.72,18.54,0.00,3.28,1.79,3.22,0.00,0.00,0.12
1,49.03,50.63,26.00,20.20,15.40,0.00,0.00,2.42,36.29,5.13,0.00,17.19,16.53,0.00,16.44,3.31,0.00,0.00,0.00,0.00,15.69,1.41,0.00,3.20,19.01,0.00,4.92,1.86,3.10,0.00,0.00,0.11
1,48.80,51.90,26.00,19.72,15.45,0.00,0.00,2.44,36.86,5.13,0.00,17.70,16.38,0.00,16.44,3.20,0.00,0.00,0.00,0.00,15.96,1.41,0.00,3.34,19.11,0.00,4.92,1.93,3.18,0.00,0.00,0.11
1,47.35,48.10,26.00,18.78,15.57,0.00,0.00,2.49,37.59,5.13,0.00,18.25,16.18,0.00,16.44,3.24,0.00,0.00,0.00,0.00,15.89,1.41,0.00,3.47,19.33,0.00,4.92,1.97,3.18,0.00,0.00,0.11
1,46.83,45.57,26.00,18.84,15.70,0.00,0.00,2.45,37.97,5.13,0.00,18.60,16.47,0.00,17.81,3.30,0.00,0.00,0.00,0.00,15.50,1.41,0.00,3.32,19.69,0.00,4.92,1.96,3.10,0.00,0.00,0.11
1,47.09,46.84,26.00,19.39,15.65,0.00,0.00,2.42,38.16,5.13,0.00,18.94,16.38,0.00,17.81,3.29,0.00,0.00,0.00,0.00,15.43,1.41,0.00,3.35,19.65,0.00,4.92,1.95,3.13,0.00,0.00,0.11
1,46.26,46.84,26.00,19.28,15.85,0.00,0.00,2.43,38.08,5.13,0.00,19.21,16.83,0.00,19.18,3.47,0.00,0.00,0.00,0.00,15.50,1.41,0.00,3.35,19.93,0.00,4.92,1.95,3.24,0.00,0.00,0.11
0,44.09,44.30,20.00,18.02,15.91,0.00,0.00,2.45,38.66,5.13,0.00,20.42,16.83,0.00,17.81,3.53,0.00,0.00,0.00,0.00,15.31,1.41,0.00,3.29,20.36,0.00,4.92,2.01,3.17,0.00,0.00,0.11
0,40.33,40.51,16.00,14.97,15.24,0.00,0.00,2.25,38.90,5.13,0.00,20.73,17.36,0.00,17.81,3.75,0.00,0.00,0.00,0.00,15.21,1.41,0.00,3.30,20.41,0.00,4.92,2.06,3.24,0.00,0.00,0.12
0,40.63,40.51,16.00,14.57,14.98,0.00,0.00,2.26,39.30,5.13,0.00,20.95,17.43,0.00,17.81,3.75,0.00,0.00,0.00,0.00,14.79,1.41,0.00,3.05,20.46,0.00,6.56,2.09,3.22,0.00,0.00,0.12
0,40.28,39.24,14.00,15.49,15.14,0.00,0.00,2.27,40.41,5.13,0.00,22.36,16.87,0.00,17.81,3.58,0.00,0.00,0.00,0.00,14.71,1.41,0.00,3.10,20.28,0.00,6.56,2.10,3.16,0.00,0.00,0.11
0,42.63,43.04,16.00,16.65,15.25,0.00,0.00,2.26,41.06,2.56,0.00,23.22,17.27,0.00,19.18,3.70,0.00,0.00,0.00,0.00,14.47,1.41,0.00,3.03,20.69,0.00,8.20,2.16,3.27,0.00,0.00,0.12
0,41.91,41.77,12.00,16.11,15.08,0.00,0.00,2.24,39.16,0.00,0.00,19.62,16.95,0.00,19.18,3.61,0.00,0.00,0.00,0.00,14.35,1.41,0.00,3.03,19.92,0.00,8.20,2.06,3.28,0.00,0.00,0.12
0,40.60,39.24,12.00,15.68,14.45,0.00,0.00,2.05,36.90,0.00,0.00,18.10,17.28,0.00,20.55,3.69,0.00,0.00,0.00,0.00,13.54,0.00,0.00,2.73,18.95,0.00,4.92,1.87,3.20,0.00,0.00,0.11
0,38.91,35.44,10.00,14.84,14.33,0.00,0.00,2.01,36.05,0.00,0.00,17.71,17.12,0.00,20.55,3.60,0.00,0.00,0.00,0.00,13.60,0.00,0.00,2.67,18.81,0.00,4.92,1.79,3.26,0.00,0.00,0.12
0,38.48,35.44,10.00,14.43,14.92,0.00,0.00,2.12,37.10,0.00,0.00,18.22,16.58,0.00,17.81,3.51,0.00,0.00,0.00,0.00,12.94,0.00,0.00,2.38,19.21,0.00,4.92,1.92,3.29,0.00,0.00,0.12
0,38.44,35.44,10.00,14.36,14.25,0.00,0.00,1.88,37.78,0.00,0.00,19.22,16.49,0.00,16.44,3.51,0.00,0.00,0.00,0.00,13.43,0.00,0.00,2.54,19.24,0.00,4.92,1.95,3.27,0.00,0.00,0.12
0,38.67,35.44,10.00,14.41,15.04,0.00,0.00,2.11,37.58,0.00,0.00,19.29,16.32,0.00,16.44,3.45,0.00,0.00,0.00,0.00,13.64,0.00,0.00,2.61,19.37,0.00,4.92,1.96,3.27,0.00,0.00,0.12
0,37.74,34.18,8.00,14.29,15.39,0.00,0.00,2.18,37.62,0.00,0.00,19.13,16.53,0.00,17.81,3.51,0.00,0.00,0.00,0.00,13.65,0.00,0.00,2.63,19.69,0.00,6.56,2.00,3.23,0.00,0.00,0.11
0,35.86,31.65,6.00,12.71,15.68,0.00,0.00,2.28,36.43,0.00,0.00,17.86,16.60,0.00,20.55,3.48,0.00,0.00,0.00,0.00,13.50,0.00,0.00,2.59,19.79,0.00,6.56,2.00,3.16,0.00,0.00,0.11
0,35.32,30.38,6.00,12.52,16.36,0.00,0.00,2.42,36.75,0.00,0.00,18.08,16.45,0.00,19.18,3.46,0.00,0.00,0.00,0.00,13.72,0.00,0.00,2.70,20.25,0.00,6.56,2.16,3.28,0.00,0.00,0.12
0,34.15,27.85,6.00,12.05,16.67,0.00,0.00,2.50,35.31,0.00,0.00,16.96,15.80,0.00,17.81,3.20,0.00,0.00,0.00,0.00,13.66,0.00,0.00,2.69,19.78,0.00,6.56,2.13,3.26,0.00,0.00,0.12
0,32.13,24.05,4.00,11.23,16.66,0.00,0.00,2.46,34.57,0.00,0.00,16.01,15.77,0.00,17.81,3.16,0.00,0.00,0.00,0.00,14.09,0.00,0.00,2.84,19.36,0.00,4.92,2.02,3.30,0.00,0.00,0.12
0,30.44,18.99,4.00,10.51,17.04,0.00,0.00,2.52,33.56,0.00,0.00,15.63,15.79,0.00,17.81,3.14,0.00,0.00,0.00,0.00,14.01,0.00,0.00,2.80,19.58,0.00,4.92,1.97,3.31,0.00,0.00,0.12
0,30.75,18.99,4.00,10.77,16.98,0.00,0.00,2.49,33.33,0.00,0.00,15.15,16.36,0.00,19.18,3.26,0.00,0.00,0.00,0.00,13.57,0.00,0.00,2.50,19.76,0.00,4.92,1.98,3.25,0.00,0.00,0.12
0,29.92,18.99,4.00,10.35,16.72,0.00,0.00,2.47,33.04,0.00,0.00,14.75,16.01,0.00,17.81,3.16,0.00,0.00,0.00,0.00,13.65,0.00,0.00,2.50,19.60,0.00,4.92,1.96,3.42,0.00,0.00,0.13
0,28.39,16.46,4.00,8.79,17.30,0.00,0.00,2.65,31.83,0.00,0.00,13.80,16.56,0.00,19.18,3.40,0.00,0.00,0.00,0.00,14.04,0.00,0.00,2.57,19.55,0.00,4.92,1.96,3.34,0.00,0.00,0.13
0,29.92,18.99,8.00,9.39,17.81,0.00,0.00,2.73,31.64,0.00,0.00,13.14,16.11,0.00,17.81,3.25,0.00,0.00,0.00,0.00,13.79,0.00,0.00,2.53,19.87,0.00,6.56,1.99,3.21,0.00,0.00,0.12
0,29.75,18.99,8.00,9.30,17.45,0.00,0.00,2.70,30.21,0.00,0.00,11.75,15.96,0.00,17.81,3.16,0.00,0.00,0.00,0.00,14.04,0.00,0.00,2.51,19.56,0.00,6.56,1.97,3.27,0.00,0.00,0.13
0,29.51,18.99,8.00,9.05,17.73,0.00,0.00,2.82,29.85,0.00,0.00,11.40,15.74,0.00,19.18,3.04,0.00,0.00,0.00,0.00,14.07,0.00,0.00,2.52,18.97,0.00,6.56,1.82,3.25,0.00,0.00,0.12
0,29.53,18.99,8.00,9.12,18.14,0.00,0.00,2.93,29.55,0.00,0.00,11.31,16.06,0.00,20.55,3.13,0.00,0.00,0.00,0.00,14.36,0.00,0.00,2.61,18.55,0.00,4.92,1.76,3.26,0.00,0.00,0.12
0,27.77,15.19,6.00,7.56,18.00,0.00,0.00,2.86,28.45,0.00,0.00,9.98,16.26,0.00,19.18,3.10,0.00,0.00,0.00,0.00,14.49,0.00,0.00,2.70,18.90,0.00,4.92,1.78,3.26,0.00,0.00,0.12
0,26.53,15.19,4.00,6.68,17.88,0.00,0.00,2.88,26.20,0.00,0.00,8.25,15.73,0.00,17.81,2.89,0.00,0.00,0.00,0.00,14.88,0.00,0.00,2.75,18.85,0.00,3.28,1.79,3.23,0.00,0.00,0.12
0,25.35,12.66,4.00,6.01,18.03,0.00,0.00,2.96,24.62,0.00,0.00,7.35,15.41,0.00,15.07,2.85,0.00,0.00,0.00,0.00,15.06,0.00,0.00,2.86,19.23,0.00,3.28,1.85,3.32,0.00,0.00,0.13
0,25.36,12.66,4.00,5.82,18.04,0.00,0.00,2.96,25.25,0.00,0.00,7.41,15.09,0.00,13.70,2.80,0.00,0.00,0.00,0.00,15.20,0.00,0.00,2.85,19.98,0.00,3.28,1.98,3.29,0.00,0.00,0.13
0,25.90,13.92,4.00,6.21,17.74,0.00,0.00,2.93,25.44,0.00,0.00,7.66,15.20,0.00,13.70,2.84,0.00,0.00,0.00,0.00,15.13,0.00,0.00,2.86,19.53,0.00,3.28,1.97,3.25,0.00,0.00,0.12
0,25.94,13.92,4.00,6.39,17.67,0.00,0.00,2.91,24.48,0.00,0.00,7.18,15.67,0.00,15.07,2.96,0.00,0.00,0.00,0.00,14.95,0.00,0.00,2.76,18.72,0.00,3.28,1.82,3.23,0.00,0.00,0.12
0,25.56,12.66,4.00,6.15,17.71,0.00,0.00,2.86,24.27,0.00,0.00,6.43,16.05,0.00,17.81,3.00,0.00,0.00,0.00,0.00,14.98,0.00,0.00,2.75,18.97,0.00,3.28,1.87,3.20,0.00,0.00,0.12
0,26.08,13.92,4.00,6.31,17.10,0.00,0.00,2.64,24.00,0.00,0.00,6.00,15.99,0.00,17.81,2.94,0.00,0.00,0.00,0.00,14.68,0.00,0.00,2.66,18.77,0.00,3.28,1.87,3.15,0.00,0.00,0.12
0,26.17,13.92,4.00,6.34,17.02,0.00,0.00,2.67,23.86,0.00,0.00,5.68,15.47,0.00,16.44,2.73,0.00,0.00,0.00,0.00,14.32,0.00,0.00,2.49,18.48,0.00,1.64,1.79,3.10,0.00,0.00,0.12
0,26.06,12.66,4.00,6.34,16.83,0.00,0.00,2.64,24.01,0.00,0.00,5.87,15.40,0.00,13.70,2.70,0.00,0.00,0.00,0.00,14.65,0.00,0.00,2.57,18.63,0.00,3.28,1.82,3.20,0.00,0.00,0.13
0,26.92,15.19,4.00,6.77,16.22,0.00,0.00,2.51,23.54,0.00,0.00,5.87,15.88,0.00,15.07,2.79,0.00,0.00,0.00,0.00,14.63,0.00,0.00,2.65,18.13,0.00,3.28,1.75,3.09,0.00,0.00,0.12
0,27.11,15.19,4.00,6.85,16.55,0.00,0.00,2.59,24.60,0.00,0.00,6.52,16.24,0.00,16.44,2.89,0.00,0.00,0.00,0.00,14.61,0.00,0.00,2.64,18.79,0.00,4.92,1.80,3.12,0.00,0.00,0.12
0,27.79,15.19,4.00,7.02,16.70,0.00,0.00,2.65,24.41,0.00,0.00,6.42,16.18,0.00,16.44,2.91,0.00,0.00,0.00,0.00,14.87,0.00,0.00,2.67,19.28,0.00,4.92,1.89,3.09,0.00,0.00,0.11
0,27.49,15.19,4.00,6.79,16.43,0.00,0.00,2.66,24.49,0.00,0.00,6.48,16.19,0.00,15.07,2.90,0.00,0.00,0.00,0.00,15.22,0.00,0.00,2.71,19.22,0.00,6.56,1.94,3.09,0.00,0.00,0.11
0,27.62,15.19,4.00,6.83,17.15,0.00,0.00,2.77,24.35,0.00,0.00,6.29,15.81,0.00,13.70,2.78,0.00,0.00,0.00,0.00,14.99,0.00,0.00,2.68,19.47,0.00,8.20,2.04,3.22,0.00,0.00,0.12
0,27.18,15.19,4.00,6.66,17.31,0.00,0.00,2.91,24.72,0.00,0.00,6.49,15.85,0.00,13.70,2.84,0.00,0.00,0.00,0.00,15.03,0.00,0.00,2.69,19.06,0.00,8.20,2.00,3.06,0.00,0.00,0.11
0,29.25,18.99,6.00,7.40,16.80,0.00,0.00,2.80,25.21,0.00,0.00,6.87,16.31,0.00,15.07,3.00,0.00,0.00,0.00,0.00,14.40,0.00,0.00,2.53,19.08,0.00,8.20,1.99,3.10,0.00,0.00,0.11
0,27.60,16.46,2.00,6.84,15.97,0.00,0.00,2.66,26.03,0.00,0.00,7.08,16.60,0.00,16.44,3.04,0.00,0.00,0.00,0.00,14.52,0.00,0.00,2.58,18.78,0.00,6.56,1.93,3.30,0.00,0.00,0.12
0,27.55,16.46,2.00,6.87,15.88,0.00,0.00,2.66,25.84,0.00,0.00,6.92,16.69,0.00,16.44,3.06,0.00,0.00,0.00,0.00,14.44,0.00,0.00,2.59,18.66,0.00,6.56,1.90,3.24,0.00,0.00,0.12
