0,25.74,8.86,0.00,6.54,14.82,0.00,0.00,2.23,22.11,0.00,0.00,4.21,16.15,0.00,15.07,2.86,0.00,0.00,0.00,0.00,9.60,0.00,0.00,1.39,19.80,0.00,9.84,1.99,3.01,0.00,0.00,0.10
0,25.73,8.86,0.00,6.53,15.21,0.00,0.00,2.29,23.27,0.00,0.00,4.57,16.12,0.00,15.07,2.87,0.00,0.00,0.00,0.00,9.69,0.00,0.00,1.46,19.21,0.00,9.84,1.85,2.93,0.00,0.00,0.10
0,25.15,8.86,0.00,6.34,15.30,0.00,0.00,2.26,23.65,0.00,0.00,4.71,16.05,0.00,13.70,2.84,0.00,0.00,0.00,0.00,9.67,0.00,0.00,1.45,18.73,0.00,9.84,1.73,2.95,0.00,0.00,0.10
0,24.74,8.86,0.00,6.09,16.70,0.00,0.00,2.89,24.22,0.00,0.00,4.98,16.54,0.00,15.07,3.04,0.00,0.00,0.00,0.00,10.03,0.00,0.00,1.48,20.08,0.00,11.48,1.89,2.96,0.00,0.00,0.10
0,25.21,10.13,0.00,6.38,17.21,0.00,0.00,3.29,24.60,0.00,0.00,4.96,16.38,0.00,15.07,3.01,0.00,0.00,0.00,0.00,9.98,0.00,0.00,1.50,20.62,0.00,13.11,2.21,2.93,0.00,0.00,0.10
0,24.54,7.59,0.00,5.59,16.78,0.00,0.00,3.21,24.78,0.00,0.00,4.79,15.93,0.00,15.07,2.71,0.00,0.00,0.00,0.00,10.13,0.00,0.00,1.56,20.45,0.00,13.11,2.21,2.95,0.00,0.00,0.10
0,25.04,8.86,0.00,5.79,16.87,0.00,0.00,3.24,25.79,0.00,0.00,5.23,16.20,0.00,16.44,2.82,0.00,0.00,0.00,0.00,10.30,0.00,0.00,1.60,20.64,0.00,13.11,2.20,3.00,0.00,0.00,0.10
0,24.79,8.86,0.00,5.74,16.88,0.00,0.00,3.28,25.65,0.00,0.00,5.15,16.03,0.00,16.44,2.80,0.00,0.00,0.00,0.00,10.37,0.00,0.00,1.61,20.65,0.00,13.11,2.19,2.92,0.00,0.00,0.10
0,25.04,10.13,0.00,5.89,16.67,0.00,0.00,3.20,25.37,0.00,0.00,5.13,15.97,0.00,16.44,2.77,0.00,0.00,0.00,0.00,10.57,0.00,0.00,1.66,20.86,0.00,13.11,2.23,3.00,0.00,0.00,0.10
0,24.92,10.13,0.00,5.73,16.78,0.00,0.00,3.22,24.85,0.00,0.00,5.00,16.22,0.00,16.44,2.79,0.00,0.00,0.00,0.00,10.98,0.00,0.00,1.77,21.07,0.00,13.11,2.32,2.99,0.00,0.00,0.10
0,25.23,11.39,0.00,5.70,16.27,0.00,0.00,3.19,25.84,0.00,0.00,5.18,16.07,0.00,13.70,2.79,0.00,0.00,0.00,0.00,10.84,0.00,0.00,1.73,20.14,0.00,8.20,2.25,2.92,0.00,0.00,0.09
0,25.08,11.39,0.00,5.57,15.83,0.00,0.00,3.09,26.05,0.00,0.00,5.21,15.84,0.00,12.33,2.72,0.00,0.00,0.00,0.00,10.92,0.00,0.00,1.73,19.96,0.00,8.20,2.20,3.05,0.00,0.00,0.10
0,24.99,11.39,0.00,5.44,14.56,0.00,0.00,2.59,27.07,0.00,0.00,5.42,15.96,0.00,12.33,2.76,0.00,0.00,0.00,0.00,11.11,0.00,0.00,1.76,19.83,0.00,8.20,2.16,3.01,0.00,0.00,0.10
0,24.67,11.39,0.00,5.42,15.06,0.00,0.00,2.72,27.47,0.00,0.00,5.46,16.02,0.00,12.33,2.81,0.00,0.00,0.00,0.00,10.87,0.00,0.00,1.62,19.93,0.00,8.20,2.21,3.06,0.00,0.00,0.11
0,24.17,10.13,0.00,5.20,14.75,0.00,0.00,2.68,27.75,0.00,0.00,5.56,15.60,0.00,13.70,2.59,0.00,0.00,0.00,0.00,11.21,0.00,0.00,1.71,20.21,0.00,8.20,2.26,3.14,0.00,0.00,0.11
0,23.85,10.13,0.00,4.59,15.19,0.00,0.00,2.80,27.93,0.00,0.00,5.61,15.54,0.00,12.33,2.55,0.00,0.00,0.00,0.00,11.51,0.00,0.00,1.81,20.55,0.00,9.84,2.29,3.16,0.00,0.00,0.11
0,24.53,10.13,0.00,4.81,15.38,0.00,0.00,2.82,26.46,0.00,0.00,5.11,15.48,0.00,12.33,2.57,0.00,0.00,0.00,0.00,11.33,0.00,0.00,1.82,20.15,0.00,8.20,2.28,3.10,0.00,0.00,0.11
0,25.31,10.13,0.00,5.30,15.30,0.00,0.00,2.84,26.56,0.00,0.00,5.24,16.26,0.00,15.07,2.82,0.00,0.00,0.00,0.00,11.53,0.00,0.00,1.84,20.49,0.00,8.20,2.35,3.34,0.00,0.00,0.12
0,25.35,11.39,0.00,5.44,15.47,0.00,0.00,2.88,26.57,0.00,0.00,5.24,16.13,0.00,15.07,2.71,0.00,0.00,0.00,0.00,11.45,0.00,0.00,1.82,20.20,0.00,8.20,2.30,3.19,0.00,0.00,0.12
0,25.26,10.13,0.00,5.49,15.13,0.00,0.00,2.86,26.31,0.00,0.00,5.18,16.49,0.00,16.44,2.77,0.00,0.00,0.00,0.00,11.19,0.00,0.00,1.70,20.20,0.00,6.56,2.29,3.11,0.00,0.00,0.11
0,25.67,11.39,0.00,5.65,15.26,0.00,0.00,2.89,26.06,0.00,0.00,5.18,16.96,0.00,16.44,2.92,0.00,0.00,0.00,0.00,11.64,0.00,0.00,1.80,20.36,0.00,6.56,2.34,3.19,0.00,0.00,0.12
0,25.66,11.39,0.00,5.87,15.35,0.00,0.00,2.91,26.04,0.00,0.00,5.19,16.67,0.00,15.07,2.83,0.00,0.00,0.00,0.00,11.50,0.00,0.00,1.80,19.71,0.00,6.56,2.25,3.25,0.00,0.00,0.12
0,25.37,11.39,0.00,5.85,15.56,0.00,0.00,2.93,25.09,0.00,0.00,4.88,16.84,0.00,15.07,2.85,0.00,0.00,0.00,0.00,11.03,0.00,0.00,1.64,19.84,0.00,6.56,2.33,3.22,0.00,0.00,0.12
0,25.65,11.39,0.00,5.92,15.35,0.00,0.00,2.91,24.76,0.00,0.00,4.76,16.81,0.00,15.07,2.88,0.00,0.00,0.00,0.00,11.39,0.00,0.00,1.69,20.09,0.00,6.56,2.41,3.19,0.00,0.00,0.12
0,26.03,11.39,0.00,5.91,14.76,0.00,0.00,2.60,23.70,0.00,0.00,4.56,16.58,0.00,15.07,2.74,0.00,0.00,0.00,0.00,11.37,0.00,0.00,1.69,19.15,0.00,4.92,2.32,3.24,0.00,0.00,0.12
0,25.07,10.13,0.00,5.71,13.66,0.00,0.00,2.00,22.96,0.00,0.00,4.34,16.93,0.00,15.07,2.79,0.00,0.00,0.00,0.00,10.89,0.00,0.00,1.58,18.48,0.00,3.28,2.05,3.26,0.00,0.00,0.12
0,23.83,10.13,0.00,5.46,14.35,0.00,0.00,2.10,22.74,0.00,0.00,4.27,16.66,0.00,13.70,2.71,0.00,0.00,0.00,0.00,10.87,0.00,0.00,1.54,19.15,0.00,4.92,2.10,3.32,0.00,0.00,0.13
0,23.86,10.13,0.00,5.57,14.70,0.00,0.00,2.20,21.80,0.00,0.00,3.98,16.78,0.00,15.07,2.73,0.00,0.00,0.00,0.00,11.25,0.00,0.00,1.70,19.61,0.00,6.56,2.21,3.25,0.00,0.00,0.12
0,24.77,11.39,0.00,6.00,14.65,0.00,0.00,2.24,20.78,0.00,0.00,3.62,16.55,0.00,15.07,2.68,0.00,0.00,0.00,0.00,11.26,0.00,0.00,1.71,19.53,0.00,6.56,2.21,3.35,0.00,0.00,0.13
0,24.38,11.39,0.00,6.01,15.12,0.00,0.00,2.30,20.99,0.00,0.00,3.77,16.57,0.00,15.07,2.65,0.00,0.00,0.00,0.00,11.18,0.00,0.00,1.75,19.67,0.00,6.56,2.22,3.49,0.00,0.00,0.14
0,23.81,11.39,0.00,5.94,15.32,0.00,0.00,2.38,21.78,0.00,0.00,4.05,16.17,0.00,15.07,2.58,0.00,0.00,0.00,0.00,10.74,0.00,0.00,1.61,19.06,0.00,4.92,2.10,3.36,0.00,0.00,0.13
0,24.36,12.66,0.00,6.16,15.38,0.00,0.00,2.36,21.17,0.00,0.00,3.88,16.10,0.00,15.07,2.55,0.00,0.00,0.00,0.00,10.51,0.00,0.00,1.58,19.41,0.00,4.92,2.11,3.52,0.00,0.00,0.14
0,22.91,10.13,0.00,5.76,15.46,0.00,0.00,2.39,21.14,0.00,0.00,3.93,16.19,0.00,15.07,2.65,0.00,0.00,0.00,0.00,10.27,0.00,0.00,1.55,19.05,0.00,4.92,2.07,3.48,0.00,0.00,0.14
0,22.61,10.13,0.00,5.64,15.76,0.00,0.00,2.39,21.20,0.00,0.00,3.93,15.47,0.00,13.70,2.42,0.00,0.00,0.00,0.00,10.35,0.00,0.00,1.54,19.10,0.00,4.92,2.07,3.49,0.00,0.00,0.14
0,22.65,10.13,0.00,5.78,15.28,0.00,0.00,2.23,20.77,0.00,0.00,3.90,15.17,0.00,13.70,2.28,0.00,0.00,0.00,0.00,10.54,0.00,0.00,1.57,18.75,0.00,4.92,2.02,3.47,0.00,0.00,0.14
0,23.13,11.39,0.00,5.79,16.30,0.00,0.00,2.45,20.44,0.00,0.00,3.78,15.35,0.00,13.70,2.32,0.00,0.00,0.00,0.00,10.01,0.00,0.00,1.45,19.16,0.00,4.92,2.04,3.35,0.00,0.00,0.13
0,21.98,8.86,0.00,5.49,16.10,0.00,0.00,2.44,20.91,0.00,0.00,3.83,15.28,0.00,15.07,2.35,0.00,0.00,0.00,0.00,9.54,0.00,0.00,1.31,18.73,0.00,3.28,2.00,3.27,0.00,0.00,0.13
0,22.02,8.86,0.00,5.46,16.16,0.00,0.00,2.46,21.06,0.00,0.00,3.84,15.47,0.00,15.07,2.42,0.00,0.00,0.00,0.00,9.49,0.00,0.00,1.30,18.22,0.00,3.28,1.91,3.26,0.00,0.00,0.13
0,20.91,8.86,0.00,4.95,16.85,0.00,0.00,2.83,21.35,0.00,0.00,3.74,14.76,0.00,15.07,2.13,0.00,0.00,0.00,0.00,9.30,0.00,0.00,1.28,19.60,0.00,4.92,2.35,3.20,0.00,0.00,0.12
0,21.56,8.86,0.00,5.20,16.71,0.00,0.00,2.85,21.94,0.00,0.00,3.79,14.51,0.00,15.07,2.07,0.00,0.00,0.00,0.00,9.53,0.00,0.00,1.38,19.56,0.00,4.92,2.36,3.19,0.00,0.00,0.12
0,21.15,7.59,0.00,4.78,16.71,0.00,0.00,2.81,21.82,0.00,0.00,3.69,14.38,0.00,13.70,2.04,0.00,0.00,0.00,0.00,9.52,0.00,0.00,1.40,19.86,0.00,4.92,2.37,3.25,0.00,0.00,0.12
0,20.80,7.59,0.00,4.67,16.63,0.00,0.00,2.79,22.75,0.00,0.00,3.93,13.59,0.00,12.33,1.88,0.00,0.00,0.00,0.00,9.45,0.00,0.00,1.39,19.07,0.00,4.92,2.29,3.19,0.00,0.00,0.12
0,20.51,7.59,0.00,4.33,16.43,0.00,0.00,2.75,22.25,0.00,0.00,3.77,13.83,0.00,12.33,1.94,0.00,0.00,0.00,0.00,9.28,0.00,0.00,1.33,19.24,0.00,4.92,2.29,3.18,0.00,0.00,0.12
0,20.63,8.86,0.00,4.53,16.43,0.00,0.00,2.71,22.34,0.00,0.00,3.85,13.48,0.00,12.33,1.89,0.00,0.00,0.00,0.00,9.36,0.00,0.00,1.36,18.92,0.00,4.92,2.24,3.27,0.00,0.00,0.12
0,21.01,8.86,0.00,4.67,16.02,0.00,0.00,2.66,22.14,0.00,0.00,3.73,13.86,0.00,13.70,2.05,0.00,0.00,0.00,0.00,9.06,0.00,0.00,1.32,18.70,0.00,4.92,2.15,3.24,0.00,0.00,0.12
0,21.57,10.13,0.00,4.91,15.62,0.00,0.00,2.55,22.57,0.00,0.00,3.83,13.81,0.00,12.33,2.06,0.00,0.00,0.00,0.00,9.36,0.00,0.00,1.39,19.23,0.00,8.20,2.22,3.20,0.00,0.00,0.12
0,21.61,10.13,0.00,5.03,15.63,0.00,0.00,2.52,22.72,0.00,0.00,3.88,13.83,0.00,12.33,2.06,0.00,0.00,0.00,0.00,9.37,0.00,0.00,1.37,18.97,0.00,8.20,2.13,3.25,0.00,0.00,0.12
0,22.56,10.13,0.00,5.35,15.36,0.00,0.00,2.46,23.38,0.00,0.00,4.16,13.88,0.00,12.33,2.08,0.00,0.00,0.00,0.00,9.35,0.00,0.00,1.40,18.44,0.00,8.20,2.06,3.16,0.00,0.00,0.12
0,21.68,8.86,0.00,5.13,15.17,0.00,0.00,2.40,23.95,0.00,0.00,4.49,13.89,0.00,9.59,2.13,0.00,0.00,0.00,0.00,8.64,0.00,0.00,1.21,17.55,0.00,6.56,1.90,3.32,0.00,0.00,0.13
0,21.56,8.86,0.00,4.99,14.65,0.00,0.00,2.25,23.98,0.00,0.00,4.59,13.86,0.00,9.59,2.10,0.00,0.00,0.00,0.00,8.58,0.00,0.00,1.16,17.79,0.00,6.56,1.90,3.36,0.00,0.00,0.14
0,20.28,6.33,0.00,4.15,14.12,0.00,0.00,2.10,24.08,0.00,0.00,4.46,13.43,0.00,8.22,2.02,0.00,0.00,0.00,0.00,8.25,0.00,0.00,1.07,17.64,0.00,6.56,1.89,3.17,0.00,0.00,0.12
0,20.70,7.59,0.00,4.28,14.41,0.00,0.00,2.18,22.99,0.00,0.00,3.97,14.15,0.00,9.59,2.28,0.00,0.00,0.00,0.00,8.63,0.00,0.00,1.17,17.86,0.00,6.56,1.91,3.26,0.00,0.00,0.13
0,19.96,6.33,0.00,4.01,14.48,0.00,0.00,2.20,23.39,0.00,0.00,4.07,14.66,0.00,10.96,2.48,0.00,0.00,0.00,0.00,9.11,0.00,0.00,1.25,17.68,0.00,6.56,1.86,3.22,0.00,0.00,0.13
0,20.05,6.33,0.00,4.05,15.05,0.00,0.00,2.37,22.86,0.00,0.00,3.95,14.55,0.00,10.96,2.45,0.00,0.00,0.00,0.00,9.13,0.00,0.00,1.27,17.69,0.00,6.56,1.85,3.12,0.00,0.00,0.12
0,20.87,7.59,0.00,4.20,15.06,0.00,0.00,2.38,22.76,0.00,0.00,3.83,14.83,0.00,10.96,2.45,0.00,0.00,0.00,0.00,9.06,0.00,0.00,1.23,18.13,0.00,6.56,1.94,3.23,0.00,0.00,0.13
0,21.38,7.59,0.00,4.46,15.12,0.00,0.00,2.42,22.59,0.00,0.00,3.81,15.04,0.00,10.96,2.47,0.00,0.00,0.00,0.00,9.03,0.00,0.00,1.21,18.98,0.00,6.56,2.03,3.17,0.00,0.00,0.12
0,20.64,6.33,0.00,4.23,15.03,0.00,0.00,2.41,22.88,0.00,0.00,3.90,14.81,0.00,9.59,2.40,0.00,0.00,0.00,0.00,9.37,0.00,0.00,1.25,19.04,0.00,6.56,2.03,3.24,0.00,0.00,0.13
0,21.47,6.33,0.00,4.41,14.43,0.00,0.00,2.19,22.93,0.00,0.00,3.90,14.86,0.00,8.22,2.41,0.00,0.00,0.00,0.00,9.52,0.00,0.00,1.32,18.61,0.00,6.56,1.98,3.34,0.00,0.00,0.13
0,21.09,6.33,0.00,4.27,14.08,0.00,0.00,2.15,22.72,0.00,0.00,4.00,14.86,0.00,8.22,2.35,0.00,0.00,0.00,0.00,9.65,0.00,0.00,1.33,18.81,0.00,6.56,2.04,3.38,0.00,0.00,0.14
0,22.08,7.59,0.00,4.54,13.61,0.00,0.00,1.92,22.48,0.00,0.00,3.94,14.80,0.00,5.48,2.40,0.00,0.00,0.00,0.00,9.61,0.00,0.00,1.31,17.43,0.00,4.92,1.66,3.38,0.00,0.00,0.14
0,22.13,8.86,0.00,4.50,13.85,0.00,0.00,1.84,22.19,0.00,0.00,3.87,15.37,0.00,6.85,2.56,0.00,0.00,0.00,0.00,9.58,0.00,0.00,1.30,17.23,0.00,4.92,1.50,3.37,0.00,0.00,0.14
0,22.62,10.13,0.00,4.72,14.05,0.00,0.00,1.89,22.50,0.00,0.00,4.09,15.36,0.00,6.85,2.51,0.00,0.00,0.00,0.00,9.73,0.00,0.00,1.27,17.94,0.00,6.56,1.62,3.31,0.00,0.00,0.14
0,22.28,10.13,0.00,4.68,14.25,0.00,0.00,2.02,21.91,0.00,0.00,4.11,15.69,0.00,6.85,2.60,0.00,0.00,0.00,0.00,9.57,0.00,0.00,1.26,18.52,0.00,6.56,1.77,3.32,0.00,0.00,0.14
0,21.94,10.13,0.00,4.66,15.13,0.00,0.00,2.22,22.41,0.00,0.00,4.13,15.66,0.00,9.59,2.53,0.00,0.00,0.00,0.00,9.53,0.00,0.00,1.25,18.97,0.00,8.20,1.87,3.36,0.00,0.00,0.14
0,20.81,7.59,0.00,4.25,15.53,0.00,0.00,2.45,23.34,0.00,0.00,4.46,16.09,0.00,10.96,2.80,0.00,0.00,0.00,0.00,9.56,0.00,0.00,1.23,19.15,0.00,8.20,1.90,3.26,0.00,0.00,0.14
0,20.38,7.59,0.00,4.11,15.68,0.00,0.00,2.45,23.37,0.00,0.00,4.59,15.71,0.00,9.59,2.65,0.00,0.00,0.00,0.00,9.64,0.00,0.00,1.25,19.56,0.00,8.20,1.96,3.38,0.00,0.00,0.14
0,19.97,7.59,0.00,4.01,15.45,0.00,0.00,2.42,23.74,0.00,0.00,4.62,15.89,0.00,9.59,2.66,0.00,0.00,0.00,0.00,9.36,0.00,0.00,1.18,19.99,0.00,6.56,2.04,3.43,0.00,0.00,0.15
0,19.07,6.33,0.00,3.52,15.51,0.00,0.00,2.46,24.09,0.00,0.00,4.72,15.51,0.00,9.59,2.57,0.00,0.00,0.00,0.00,9.54,0.00,0.00,1.24,19.88,0.00,6.56,2.06,3.45,0.00,0.00,0.16
0,18.56,6.33,0.00,3.35,15.28,0.00,0.00,2.37,24.15,0.00,0.00,4.68,15.24,0.00,9.59,2.50,0.00,0.00,0.00,0.00,9.48,0.00,0.00,1.22,19.62,0.00,4.92,1.98,3.48,0.00,0.00,0.16
0,18.58,6.33,0.00,3.26,15.97,0.00,0.00,2.56,24.29,0.00,0.00,4.71,15.45,0.00,10.96,2.55,0.00,0.00,0.00,0.00,9.73,0.00,0.00,1.25,19.59,0.00,4.92,1.98,3.41,0.00,0.00,0.15
0,18.54,6.33,0.00,3.25,16.84,0.00,0.00,2.76,24.24,0.00,0.00,4.69,15.62,0.00,10.96,2.59,0.00,0.00,0.00,0.00,9.96,0.00,0.00,1.29,19.77,0.00,6.56,2.03,3.38,0.00,0.00,0.14
0,19.00,6.33,0.00,3.37,17.46,0.00,0.00,2.96,23.81,0.00,0.00,4.60,15.78,0.00,10.96,2.59,0.00,0.00,0.00,0.00,9.87,0.00,0.00,1.27,20.41,0.00,8.20,2.19,3.46,0.00,0.00,0.15
0,20.28,10.13,0.00,4.17,17.33,0.00,0.00,2.92,24.04,0.00,0.00,4.75,15.84,0.00,10.96,2.56,0.00,0.00,0.00,0.00,10.23,0.00,0.00,1.44,20.34,0.00,8.20,2.18,3.49,0.00,0.00,0.15
0,19.97,10.13,0.00,4.09,17.93,0.00,0.00,3.11,24.09,0.00,0.00,5.00,15.51,0.00,9.59,2.49,0.00,0.00,0.00,0.00,10.19,0.00,0.00,1.49,20.25,0.00,8.20,2.15,3.43,0.00,0.00,0.15
0,20.39,10.13,0.00,4.15,17.46,0.00,0.00,2.92,24.12,0.00,0.00,5.01,15.61,0.00,9.59,2.48,0.00,0.00,0.00,0.00,10.27,0.00,0.00,1.49,20.30,0.00,8.20,2.15,3.53,0.00,0.00,0.16
0,20.62,10.13,0.00,4.24,17.56,0.00,0.00,2.92,24.02,0.00,0.00,4.95,15.40,0.00,9.59,2.45,0.00,0.00,0.00,0.00,10.51,0.00,0.00,1.56,20.20,0.00,8.20,2.15,3.56,0.00,0.00,0.16
0,20.53,10.13,0.00,4.18,17.92,0.00,0.00,2.99,25.51,2.56,0.00,5.74,15.05,0.00,9.59,2.41,0.00,0.00,0.00,0.00,10.48,0.00,0.00,1.57,19.46,0.00,8.20,2.08,3.58,0.00,0.00,0.17
0,20.70,10.13,0.00,4.27,17.66,0.00,0.00,2.92,24.76,2.56,0.00,5.52,15.37,0.00,9.59,2.50,0.00,0.00,0.00,0.00,10.21,0.00,0.00,1.54,19.50,0.00,8.20,2.06,3.70,0.00,0.00,0.17
0,20.40,10.13,0.00,4.15,17.58,0.00,0.00,2.88,25.02,2.56,0.00,5.59,15.47,0.00,10.96,2.51,0.00,0.00,0.00,0.00,9.93,0.00,0.00,1.48,19.44,0.00,8.20,2.09,3.68,0.00,0.00,0.17
0,20.04,10.13,0.00,4.10,17.82,0.00,0.00,2.92,25.08,2.56,0.00,5.46,15.54,0.00,12.33,2.55,0.00,0.00,0.00,0.00,10.04,0.00,0.00,1.49,19.91,0.00,8.20,2.12,3.61,0.00,0.00,0.16
0,19.33,8.86,0.00,4.02,18.00,0.00,0.00,2.92,25.22,2.56,0.00,5.50,15.69,0.00,15.07,2.54,0.00,0.00,0.00,0.00,9.85,0.00,0.00,1.47,20.14,0.00,8.20,2.13,3.65,0.00,0.00,0.17
0,18.81,7.59,0.00,3.84,17.98,0.00,0.00,3.00,26.27,2.56,0.00,5.90,15.40,0.00,15.07,2.45,0.00,0.00,0.00,0.00,9.79,0.00,0.00,1.45,20.17,0.00,8.20,2.14,3.66,0.00,0.00,0.17
0,18.08,6.33,0.00,3.69,17.79,0.00,0.00,2.92,25.45,2.56,0.00,5.74,15.22,0.00,15.07,2.42,0.00,0.00,0.00,0.00,9.46,0.00,0.00,1.40,19.53,0.00,6.56,2.01,3.63,0.00,0.00,0.17
0,18.36,6.33,0.00,3.61,17.85,0.00,0.00,2.91,25.06,2.56,0.00,5.49,15.57,0.00,16.44,2.51,0.00,0.00,0.00,0.00,9.39,0.00,0.00,1.38,19.07,0.00,6.56,1.95,3.56,0.00,0.00,0.16
0,19.07,6.33,0.00,3.82,17.54,0.00,0.00,2.76,24.75,2.56,0.00,5.39,15.44,0.00,13.70,2.54,0.00,0.00,0.00,0.00,9.29,0.00,0.00,1.36,19.01,0.00,4.92,1.87,3.51,0.00,0.00,0.16
0,19.99,7.59,0.00,4.14,17.31,0.00,0.00,2.63,23.64,2.56,0.00,5.07,15.34,0.00,13.70,2.41,0.00,0.00,0.00,0.00,9.40,0.00,0.00,1.41,19.76,0.00,8.20,2.01,3.58,0.00,0.00,0.16
0,20.04,7.59,0.00,4.15,17.41,0.00,0.00,2.70,24.17,2.56,0.00,5.13,15.56,0.00,13.70,2.43,0.00,0.00,0.00,0.00,9.44,0.00,0.00,1.44,19.86,0.00,8.20,2.03,3.62,0.00,0.00,0.17
0,20.98,7.59,0.00,4.35,17.69,0.00,0.00,2.83,23.32,2.56,0.00,4.90,15.13,0.00,13.70,2.32,0.00,0.00,0.00,0.00,9.43,0.00,0.00,1.45,19.36,0.00,6.56,1.97,3.62,0.00,0.00,0.17
0,21.08,7.59,0.00,4.33,17.74,0.00,0.00,2.88,22.97,2.56,0.00,4.68,15.45,0.00,15.07,2.37,0.00,0.00,0.00,0.00,9.65,0.00,0.00,1.50,19.65,0.00,6.56,2.05,3.52,0.00,0.00,0.16
0,21.11,7.59,0.00,4.32,18.41,0.00,0.00,3.06,22.90,2.56,0.00,4.60,16.10,0.00,16.44,2.51,0.00,0.00,0.00,0.00,9.97,0.00,0.00,1.60,19.61,0.00,6.56,2.05,3.63,0.00,0.00,0.16
0,21.41,7.59,0.00,4.39,18.27,0.00,0.00,2.99,23.13,2.56,0.00,4.58,15.30,0.00,15.07,2.36,0.00,0.00,0.00,0.00,9.73,0.00,0.00,1.56,19.64,0.00,6.56,2.08,3.56,0.00,0.00,0.16
0,21.70,7.59,0.00,4.55,17.56,0.00,0.00,2.77,23.08,2.56,0.00,4.64,15.20,0.00,15.07,2.28,0.00,0.00,0.00,0.00,9.83,0.00,0.00,1.58,19.99,0.00,6.56,2.12,3.45,0.00,0.00,0.15
0,21.53,7.59,0.00,4.48,17.58,0.00,0.00,2.88,24.07,2.56,0.00,4.91,15.17,0.00,15.07,2.29,0.00,0.00,0.00,0.00,9.95,0.00,0.00,1.62,19.16,0.00,3.28,1.98,3.46,0.00,0.00,0.15
0,20.60,5.06,0.00,4.17,17.46,0.00,0.00,2.88,24.46,2.56,0.00,5.00,15.13,0.00,15.07,2.35,0.00,0.00,0.00,0.00,9.96,0.00,0.00,1.54,18.83,0.00,3.28,1.94,3.24,0.00,0.00,0.14
0,20.53,3.80,0.00,4.08,17.06,0.00,0.00,2.82,24.30,2.56,0.00,4.77,15.03,0.00,15.07,2.33,0.00,0.00,0.00,0.00,11.12,2.82,0.00,2.45,19.08,0.00,3.28,2.00,3.35,0.00,0.00,0.14
0,20.71,3.80,0.00,4.21,17.17,0.00,0.00,2.72,25.30,2.56,0.00,5.12,14.96,0.00,15.07,2.25,0.00,0.00,0.00,0.00,11.23,2.82,0.00,2.45,19.08,0.00,3.28,2.05,3.30,0.00,0.00,0.14
0,20.68,3.80,0.00,4.26,16.89,0.00,0.00,2.74,25.85,2.56,0.00,5.29,14.90,0.00,15.07,2.28,0.00,0.00,0.00,0.00,11.06,2.82,0.00,2.46,19.27,0.00,3.28,2.07,3.16,0.00,0.00,0.12
0,20.13,2.53,0.00,4.03,16.53,0.00,0.00,2.68,24.27,0.00,0.00,4.48,15.49,0.00,16.44,2.41,0.00,0.00,0.00,0.00,10.85,2.82,0.00,2.43,19.03,0.00,3.28,2.04,3.17,0.00,0.00,0.12
0,19.97,2.53,0.00,3.97,16.52,0.00,0.00,2.64,24.67,0.00,0.00,4.53,15.37,0.00,16.44,2.44,0.00,0.00,0.00,0.00,10.83,2.82,0.00,2.41,18.95,0.00,3.28,2.03,3.05,0.00,0.00,0.11
0,20.32,2.53,0.00,4.00,16.97,0.00,0.00,2.82,24.28,0.00,0.00,4.46,15.15,0.00,15.07,2.40,0.00,0.00,0.00,0.00,11.28,2.82,0.00,2.51,19.34,0.00,3.28,2.13,2.99,0.00,0.00,0.11
0,20.69,2.53,0.00,4.05,17.04,0.00,0.00,2.87,24.70,0.00,0.00,4.63,15.49,0.00,15.07,2.51,0.00,0.00,0.00,0.00,11.70,2.82,0.00,2.59,19.37,0.00,3.28,2.08,2.96,0.00,0.00,0.11
0,20.14,2.53,0.00,3.87,16.67,0.00,0.00,2.75,24.86,0.00,0.00,4.59,15.68,0.00,13.70,2.75,0.00,0.00,0.00,0.00,11.94,2.82,0.00,2.62,19.34,0.00,3.28,2.07,2.87,0.00,0.00,0.10
0,20.45,2.53,0.00,3.98,16.71,0.00,0.00,2.78,24.41,0.00,0.00,4.33,15.78,0.00,13.70,2.79,0.00,0.00,0.00,0.00,11.78,2.82,0.00,2.58,19.44,0.00,3.28,2.05,2.91,0.00,0.00,0.10
0,20.38,2.53,0.00,4.09,16.84,0.00,0.00,2.78,25.07,0.00,0.00,4.51,15.99,0.00,15.07,2.84,0.00,0.00,0.00,0.00,12.02,2.82,0.00,2.62,19.55,0.00,3.28,2.12,2.88,0.00,0.00,0.10
0,20.26,2.53,0.00,4.07,16.81,0.00,0.00,2.80,25.03,0.00,0.00,4.39,15.62,0.00,15.07,2.69,0.00,0.00,0.00,0.00,12.31,2.82,0.00,2.68,19.61,0.00,3.28,2.08,2.86,0.00,0.00,0.10
0,20.01,2.53,0.00,4.04,16.94,0.00,0.00,2.85,25.10,0.00,0.00,4.41,15.88,0.00,16.44,2.76,0.00,0.00,0.00,0.00,13.02,2.82,0.00,2.90,19.68,0.00,3.28,2.17,2.90,0.00,0.00,0.10
0,20.03,1.27,0.00,4.06,16.22,0.00,0.00,2.67,25.36,0.00,0.00,4.54,15.48,0.00,15.07,2.63,0.00,0.00,0.00,0.00,13.23,2.82,0.00,2.95,18.72,0.00,0.00,1.95,2.84,0.00,0.00,0.10
0,20.35,1.27,0.00,4.13,16.11,0.00,0.00,2.61,24.57,0.00,0.00,4.35,15.21,0.00,15.07,2.57,0.00,0.00,0.00,0.00,13.14,2.82,0.00,2.91,18.85,0.00,0.00,1.89,2.71,0.00,0.00,0.09
0,19.50,1.27,0.00,3.96,16.33,0.00,0.00,2.57,24.80,0.00,0.00,4.40,15.28,0.00,15.07,2.58,0.00,0.00,0.00,0.00,13.12,2.82,0.00,2.92,18.76,0.00,0.00,1.92,2.69,0.00,0.00,0.08
0,19.31,1.27,0.00,3.92,16.23,0.00,0.00,2.53,24.51,0.00,0.00,4.39,15.21,0.00,13.70,2.57,0.00,0.00,0.00,0.00,12.95,2.82,0.00,2.84,18.76,0.00,0.00,1.87,2.76,0.00,0.00,0.08
0,19.69,1.27,0.00,4.01,16.44,0.00,0.00,2.57,24.59,0.00,0.00,4.45,15.06,0.00,12.33,2.53,0.00,0.00,0.00,0.00,12.72,2.82,0.00,2.79,18.50,0.00,0.00,1.84,2.61,0.00,0.00,0.08
0,19.46,1.27,0.00,4.03,15.72,0.00,0.00,2.39,23.66,0.00,0.00,4.22,15.01,0.00,12.33,2.52,0.00,0.00,0.00,0.00,12.78,2.82,0.00,2.77,18.48,0.00,1.64,1.82,2.65,0.00,0.00,0.08
0,18.83,1.27,0.00,3.75,15.85,0.00,0.00,2.40,23.42,0.00,0.00,4.03,15.13,0.00,13.70,2.52,0.00,0.00,0.00,0.00,12.84,2.82,0.00,2.82,18.62,0.00,1.64,1.80,2.76,0.00,0.00,0.09
0,18.94,1.27,0.00,3.81,15.05,0.00,0.00,2.14,22.65,0.00,0.00,3.90,15.37,0.00,15.07,2.64,0.00,0.00,0.00,0.00,12.83,2.82,0.00,2.79,18.01,0.00,1.64,1.70,2.81,0.00,0.00,0.09
0,18.77,0.00,0.00,3.61,15.28,0.00,0.00,2.24,22.65,0.00,0.00,3.85,14.91,0.00,15.07,2.44,0.00,0.00,0.00,0.00,13.09,2.82,0.00,2.86,18.30,0.00,1.64,1.73,2.85,0.00,0.00,0.09
0,18.17,0.00,0.00,3.28,15.57,0.00,0.00,2.31,22.29,0.00,0.00,3.65,14.78,0.00,16.44,2.37,0.00,0.00,0.00,0.00,11.50,0.00,0.00,1.89,17.93,0.00,1.64,1.68,2.83,0.00,0.00,0.09
0,18.24,0.00,0.00,3.18,14.91,0.00,0.00,2.16,21.95,0.00,0.00,3.48,15.04,0.00,17.81,2.39,0.00,0.00,0.00,0.00,11.09,0.00,0.00,1.68,18.22,0.00,1.64,1.65,2.70,0.00,0.00,0.08
0,17.54,0.00,0.00,2.99,16.18,0.00,2.33,2.62,21.41,0.00,0.00,3.26,15.03,0.00,17.81,2.38,0.00,0.00,0.00,0.00,11.36,0.00,0.00,1.71,18.80,0.00,3.28,1.74,2.74,0.00,0.00,0.09
0,17.04,0.00,0.00,2.85,16.56,0.00,2.33,2.86,21.89,0.00,0.00,3.34,14.58,0.00,16.44,2.27,0.00,0.00,0.00,0.00,11.50,0.00,0.00,1.71,18.77,0.00,3.28,1.67,2.77,0.00,0.00,0.09
0,17.31,0.00,0.00,2.88,17.33,0.00,2.33,3.09,21.99,0.00,0.00,3.40,14.24,0.00,15.07,2.18,0.00,0.00,0.00,0.00,11.58,0.00,0.00,1.74,18.79,0.00,3.28,1.68,2.74,0.00,0.00,0.09
0,17.74,1.27,0.00,3.17,17.26,0.00,2.33,3.05,21.83,0.00,0.00,3.32,14.40,0.00,16.44,2.17,0.00,0.00,0.00,0.00,11.51,0.00,0.00,1.77,18.78,0.00,4.92,1.68,2.82,0.00,0.00,0.09
0,17.39,1.27,0.00,3.15,17.71,0.00,2.33,3.09,20.53,0.00,0.00,2.97,13.79,0.00,15.07,1.96,0.00,0.00,0.00,0.00,11.10,0.00,0.00,1.69,18.71,0.00,4.92,1.69,2.80,0.00,0.00,0.09
0,17.51,1.27,0.00,3.16,18.28,0.00,2.33,3.24,20.24,0.00,0.00,2.88,13.62,0.00,15.07,1.80,0.00,0.00,0.00,0.00,11.35,0.00,0.00,1.74,18.95,0.00,4.92,1.77,2.89,0.00,0.00,0.10
0,17.28,1.27,0.00,3.09,18.77,0.00,2.33,3.35,20.08,0.00,0.00,2.83,13.60,0.00,15.07,1.74,0.00,0.00,0.00,0.00,11.31,0.00,0.00,1.75,19.17,0.00,4.92,1.79,2.94,0.00,0.00,0.10
0,17.14,1.27,0.00,2.96,18.60,0.00,2.33,3.29,19.58,0.00,0.00,2.69,13.34,0.00,13.70,1.69,0.00,0.00,0.00,0.00,11.30,0.00,0.00,1.74,18.67,0.00,4.92,1.73,2.91,0.00,0.00,0.10
0,17.26,1.27,0.00,2.98,19.03,0.00,2.33,3.43,19.92,0.00,0.00,2.71,13.37,0.00,13.70,1.73,0.00,0.00,0.00,0.00,11.24,0.00,0.00,1.73,18.42,0.00,4.92,1.71,3.08,0.00,0.00,0.11
0,17.02,1.27,0.00,2.93,19.59,0.00,2.33,3.62,20.07,0.00,0.00,2.74,13.53,0.00,15.07,1.78,0.00,0.00,0.00,0.00,10.85,0.00,0.00,1.57,18.41,0.00,6.56,1.72,3.24,0.00,0.00,0.12
0,16.47,1.27,0.00,2.63,19.97,0.00,2.33,3.74,19.79,0.00,0.00,2.74,13.77,0.00,16.44,1.86,0.00,0.00,0.00,0.00,10.83,0.00,0.00,1.60,18.84,0.00,6.56,1.77,3.27,0.00,0.00,0.12
0,16.04,1.27,0.00,2.58,20.16,0.00,2.33,3.78,20.37,0.00,0.00,2.84,14.08,0.00,17.81,1.94,0.00,0.00,0.00,0.00,10.69,0.00,0.00,1.58,18.41,0.00,6.56,1.75,3.34,0.00,0.00,0.13
0,16.26,1.27,0.00,2.54,20.15,0.00,2.33,3.76,20.41,0.00,0.00,2.82,14.16,0.00,17.81,1.97,0.00,0.00,0.00,0.00,10.82,0.00,0.00,1.56,18.37,0.00,6.56,1.66,3.34,0.00,0.00,0.13
0,17.00,1.27,0.00,2.69,20.64,0.00,2.33,3.83,20.90,0.00,0.00,2.95,13.88,0.00,17.81,1.92,0.00,0.00,0.00,0.00,10.91,0.00,0.00,1.57,18.30,0.00,6.56,1.67,3.25,0.00,0.00,0.13
0,16.66,1.27,0.00,2.58,20.58,0.00,2.33,3.85,20.48,0.00,0.00,2.82,13.86,0.00,17.81,1.93,0.00,0.00,0.00,0.00,11.00,0.00,0.00,1.59,18.58,0.00,6.56,1.66,3.31,0.00,0.00,0.13
0,17.01,2.53,0.00,2.73,21.09,0.00,2.33,3.96,21.41,0.00,0.00,3.23,13.90,0.00,17.81,1.91,0.00,0.00,0.00,0.00,11.23,0.00,0.00,1.66,18.94,0.00,4.92,1.77,3.40,0.00,0.00,0.14
0,17.32,2.53,0.00,2.90,20.46,0.00,2.33,3.90,21.79,0.00,0.00,3.29,13.57,0.00,16.44,1.86,0.00,0.00,0.00,0.00,11.03,0.00,0.00,1.62,18.68,0.00,4.92,1.76,3.35,0.00,0.00,0.13
0,17.32,2.53,0.00,2.93,20.40,0.00,2.33,3.89,21.72,0.00,0.00,3.27,13.55,0.00,16.44,1.83,0.00,0.00,0.00,0.00,10.74,0.00,0.00,1.59,18.80,0.00,4.92,1.76,3.31,0.00,0.00,0.13
0,17.22,2.53,0.00,2.85,20.47,0.00,2.33,3.77,21.63,0.00,0.00,3.24,13.79,0.00,16.44,1.86,0.00,0.00,0.00,0.00,10.34,0.00,0.00,1.47,18.42,0.00,4.92,1.72,3.24,0.00,0.00,0.13
0,17.43,2.53,0.00,2.91,20.13,0.00,2.33,3.75,21.21,0.00,0.00,3.11,13.78,0.00,15.07,1.86,0.00,0.00,0.00,0.00,10.30,0.00,0.00,1.46,19.38,0.00,8.20,1.91,3.15,0.00,0.00,0.13
0,16.84,2.53,0.00,2.86,20.11,0.00,2.33,3.79,20.91,0.00,0.00,2.91,14.00,0.00,15.07,1.93,0.00,0.00,0.00,0.00,9.99,0.00,0.00,1.39,19.57,0.00,9.84,1.93,3.29,0.00,0.00,0.13
0,16.77,2.53,0.00,2.81,21.01,0.00,2.33,3.98,21.00,0.00,0.00,3.03,13.81,0.00,15.07,1.94,0.00,0.00,0.00,0.00,9.78,0.00,0.00,1.33,19.31,0.00,8.20,1.87,3.28,0.00,0.00,0.13
0,17.10,2.53,0.00,2.85,19.73,0.00,0.00,3.29,20.64,0.00,0.00,3.03,14.05,0.00,16.44,2.02,0.00,0.00,0.00,0.00,10.00,0.00,0.00,1.42,19.22,0.00,8.20,1.88,3.32,0.00,0.00,0.14
0,16.60,2.53,0.00,2.80,18.96,0.00,0.00,3.10,19.63,0.00,0.00,2.87,14.39,0.00,17.81,2.11,0.00,0.00,0.00,0.00,9.86,0.00,0.00,1.43,19.75,0.00,8.20,2.03,3.36,0.00,0.00,0.14
0,15.62,1.27,0.00,2.46,18.35,0.00,0.00,3.04,19.97,0.00,0.00,2.90,14.55,0.00,16.44,2.13,0.00,0.00,0.00,0.00,10.20,0.00,0.00,1.48,19.53,0.00,8.20,2.01,3.34,0.00,0.00,0.14
0,16.14,1.27,0.00,2.58,17.97,0.00,0.00,2.98,20.20,0.00,0.00,3.07,15.24,0.00,19.18,2.47,0.00,0.00,0.00,0.00,10.31,0.00,0.00,1.52,19.59,0.00,8.20,1.99,3.32,0.00,0.00,0.14
0,16.44,1.27,0.00,2.72,18.21,0.00,0.00,2.99,20.65,0.00,0.00,3.22,15.35,0.00,20.55,2.46,0.00,0.00,0.00,0.00,9.93,0.00,0.00,1.45,19.18,0.00,8.20,1.89,3.26,0.00,0.00,0.14
0,16.87,1.27,0.00,2.81,18.38,0.00,0.00,3.00,20.27,0.00,0.00,3.19,15.29,0.00,20.55,2.45,0.00,0.00,0.00,0.00,10.00,0.00,0.00,1.42,18.98,0.00,8.20,1.85,3.24,0.00,0.00,0.14
0,16.78,1.27,0.00,2.76,18.32,0.00,0.00,3.04,20.12,0.00,0.00,3.16,15.22,0.00,20.55,2.45,0.00,0.00,0.00,0.00,10.09,0.00,0.00,1.46,19.56,0.00,8.20,1.97,3.33,0.00,0.00,0.14
0,16.74,1.27,0.00,2.69,18.51,0.00,0.00,3.02,20.78,0.00,0.00,3.34,15.47,0.00,20.55,2.48,0.00,0.00,0.00,0.00,10.07,0.00,0.00,1.43,19.71,0.00,8.20,1.96,3.35,0.00,0.00,0.14
0,16.67,1.27,0.00,2.69,17.50,0.00,0.00,2.72,20.39,0.00,0.00,3.34,15.30,0.00,17.81,2.43,0.00,0.00,0.00,0.00,10.35,0.00,0.00,1.44,19.57,0.00,6.56,1.95,3.22,0.00,0.00,0.13
0,17.23,1.27,0.00,2.83,17.62,0.00,0.00,2.72,20.51,0.00,0.00,3.50,15.06,0.00,16.44,2.31,0.00,0.00,0.00,0.00,10.36,0.00,0.00,1.43,19.48,0.00,6.56,1.93,3.50,0.00,0.00,0.15
0,17.26,1.27,0.00,2.84,17.81,0.00,0.00,2.75,20.86,0.00,0.00,3.66,15.16,0.00,16.44,2.30,0.00,0.00,0.00,0.00,10.76,0.00,0.00,1.44,20.01,0.00,8.20,2.01,3.47,0.00,0.00,0.16
0,16.74,1.27,0.00,2.78,18.01,0.00,0.00,2.85,20.81,0.00,0.00,3.75,15.18,0.00,16.44,2.32,0.00,0.00,0.00,0.00,10.58,0.00,0.00,1.46,19.66,0.00,8.20,1.98,3.46,0.00,0.00,0.16
0,16.17,1.27,0.00,2.63,17.51,0.00,0.00,2.78,20.66,0.00,0.00,3.76,15.70,0.00,17.81,2.40,0.00,0.00,0.00,0.00,10.32,0.00,0.00,1.45,19.53,0.00,8.20,1.96,3.41,0.00,0.00,0.15
0,15.61,1.27,0.00,2.55,17.56,0.00,0.00,2.72,21.13,0.00,0.00,4.19,15.98,0.00,17.81,2.58,0.00,0.00,0.00,0.00,10.33,0.00,0.00,1.43,19.20,0.00,8.20,1.91,3.50,0.00,0.00,0.16
0,16.05,1.27,0.00,2.62,17.44,0.00,0.00,2.65,20.16,0.00,0.00,3.80,15.99,0.00,17.81,2.63,0.00,0.00,0.00,0.00,10.29,0.00,0.00,1.40,18.61,0.00,8.20,1.78,3.36,0.00,0.00,0.15
0,15.08,0.00,0.00,2.29,17.50,0.00,0.00,2.68,20.60,0.00,0.00,3.86,16.15,0.00,17.81,2.68,0.00,0.00,0.00,0.00,10.06,0.00,0.00,1.31,19.09,0.00,9.84,1.86,3.38,0.00,0.00,0.14
0,14.72,0.00,0.00,2.18,17.88,0.00,0.00,2.80,20.33,0.00,0.00,3.85,15.89,0.00,16.44,2.61,0.00,0.00,0.00,0.00,10.13,0.00,0.00,1.32,19.45,0.00,11.48,1.89,3.41,0.00,0.00,0.14
0,14.35,0.00,0.00,2.10,18.11,0.00,0.00,2.83,20.10,0.00,0.00,3.90,15.67,0.00,15.07,2.59,0.00,0.00,0.00,0.00,10.05,0.00,0.00,1.32,19.75,0.00,11.48,1.92,3.40,0.00,0.00,0.14
0,14.03,0.00,0.00,2.06,18.01,0.00,0.00,2.84,20.86,0.00,0.00,4.22,15.67,0.00,15.07,2.62,0.00,0.00,0.00,0.00,10.11,0.00,0.00,1.33,19.49,0.00,9.84,1.83,3.47,0.00,0.00,0.15
0,13.81,0.00,0.00,2.01,18.52,0.00,0.00,2.85,21.09,0.00,0.00,4.38,15.79,0.00,16.44,2.72,0.00,0.00,0.00,0.00,10.21,0.00,0.00,1.34,18.89,0.00,8.20,1.76,3.39,0.00,0.00,0.14
0,13.88,0.00,0.00,1.97,18.60,0.00,0.00,2.88,20.77,0.00,0.00,4.27,16.02,0.00,17.81,2.71,0.00,0.00,0.00,0.00,10.08,0.00,0.00,1.34,19.25,0.00,8.20,1.78,3.38,0.00,0.00,0.14
0,14.12,0.00,0.00,1.98,18.36,0.00,0.00,2.83,21.08,0.00,0.00,4.49,16.15,0.00,17.81,2.76,0.00,0.00,0.00,0.00,9.93,0.00,0.00,1.29,19.00,0.00,8.20,1.76,3.27,0.00,0.00,0.12
0,14.09,0.00,0.00,1.96,18.49,0.00,0.00,2.85,22.53,0.00,0.00,5.14,15.94,0.00,17.81,2.67,0.00,0.00,0.00,0.00,9.52,0.00,0.00,1.15,18.08,0.00,8.20,1.56,3.32,0.00,0.00,0.13
0,14.51,0.00,0.00,2.02,18.78,0.00,0.00,2.92,23.24,0.00,0.00,5.39,15.85,0.00,17.81,2.72,0.00,0.00,0.00,0.00,9.23,0.00,0.00,1.13,17.86,0.00,6.56,1.49,3.29,0.00,0.00,0.12
0,14.75,0.00,0.00,2.17,19.98,0.00,0.00,3.18,23.27,0.00,0.00,5.40,15.34,0.00,17.81,2.43,0.00,0.00,0.00,0.00,9.32,0.00,0.00,1.14,18.73,0.00,8.20,1.72,3.26,0.00,0.00,0.12
0,13.81,0.00,0.00,1.74,19.98,0.00,0.00,3.21,22.49,0.00,0.00,5.27,15.00,0.00,15.07,2.39,0.00,0.00,0.00,0.00,9.37,0.00,0.00,1.18,18.68,0.00,8.20,1.72,3.23,0.00,0.00,0.12
0,13.84,0.00,0.00,1.81,19.46,0.00,0.00,3.14,22.59,0.00,0.00,5.27,15.06,0.00,15.07,2.46,0.00,0.00,0.00,0.00,9.63,0.00,0.00,1.29,19.24,0.00,8.20,1.82,3.27,0.00,0.00,0.12
0,14.15,0.00,0.00,1.86,19.52,0.00,0.00,3.15,23.46,0.00,0.00,5.59,15.17,0.00,15.07,2.45,0.00,0.00,0.00,0.00,9.45,0.00,0.00,1.27,18.98,0.00,9.84,1.75,3.37,0.00,0.00,0.13
0,13.92,0.00,0.00,1.83,19.86,0.00,0.00,3.22,23.17,0.00,0.00,5.47,14.71,0.00,13.70,2.37,0.00,0.00,0.00,0.00,9.49,0.00,0.00,1.32,19.21,0.00,9.84,1.80,3.31,0.00,0.00,0.13
0,14.01,0.00,0.00,1.85,19.71,0.00,0.00,3.16,23.23,0.00,0.00,5.39,14.46,0.00,15.07,2.33,0.00,0.00,0.00,0.00,9.07,0.00,0.00,1.26,19.47,0.00,11.48,1.81,3.35,0.00,0.00,0.13
0,13.82,0.00,0.00,1.72,20.00,0.00,0.00,3.13,22.75,0.00,0.00,5.15,14.80,0.00,15.07,2.49,0.00,0.00,0.00,0.00,9.24,0.00,0.00,1.30,19.18,0.00,11.48,1.75,3.07,0.00,0.00,0.10
0,15.04,2.53,0.00,2.41,19.94,0.00,0.00,3.13,22.62,0.00,0.00,4.94,14.63,0.00,13.70,2.47,0.00,0.00,0.00,0.00,8.91,0.00,0.00,1.26,18.82,0.00,9.84,1.71,3.03,0.00,0.00,0.10
0,16.48,3.80,0.00,2.92,19.74,0.00,0.00,3.08,23.14,0.00,0.00,5.05,14.86,0.00,13.70,2.53,0.00,0.00,0.00,0.00,8.59,0.00,0.00,1.18,19.23,0.00,11.48,1.79,3.04,0.00,0.00,0.10
0,17.11,5.06,0.00,3.18,19.95,0.00,0.00,3.11,23.58,0.00,0.00,5.11,14.69,0.00,13.70,2.52,0.00,0.00,0.00,0.00,8.99,0.00,0.00,1.32,19.44,0.00,11.48,1.82,3.18,0.00,0.00,0.11
0,18.85,7.59,0.00,3.87,19.21,0.00,0.00,2.98,22.88,0.00,0.00,4.59,14.93,0.00,16.44,2.56,0.00,0.00,0.00,0.00,10.22,1.41,0.00,1.72,19.81,0.00,11.48,1.84,3.11,0.00,0.00,0.11
0,19.67,7.59,0.00,4.24,18.81,0.00,0.00,2.94,21.92,0.00,0.00,4.37,15.63,0.00,17.81,2.79,0.00,0.00,0.00,0.00,10.67,1.41,0.00,2.05,20.43,0.00,13.11,1.92,3.15,0.00,0.00,0.11
0,23.65,13.92,2.00,7.25,18.79,0.00,0.00,2.89,22.32,0.00,0.00,4.54,16.12,0.00,19.18,2.97,0.00,0.00,0.00,0.00,11.49,2.82,0.00,2.48,19.63,0.00,11.48,1.80,3.36,0.00,0.00,0.13
0,26.79,18.99,4.00,9.49,18.86,0.00,0.00,2.90,22.16,0.00,0.00,4.53,16.46,0.00,19.18,3.09,0.00,0.00,0.00,0.00,11.77,2.82,0.00,2.62,19.53,0.00,9.84,1.78,3.37,0.00,0.00,0.13
0,31.09,25.32,10.00,12.08,18.78,0.00,0.00,2.87,22.56,0.00,0.00,4.58,16.57,0.00,19.18,3.06,0.00,0.00,0.00,0.00,12.03,2.82,0.00,2.69,19.89,0.00,9.84,1.83,3.46,0.00,0.00,0.14
1,36.42,34.18,16.00,14.77,18.87,0.00,0.00,2.94,23.26,0.00,0.00,4.76,16.78,0.00,19.18,3.07,0.00,0.00,0.00,0.00,12.03,2.82,0.00,2.69,19.70,0.00,8.20,1.80,3.84,0.00,0.00,0.18
1,40.27,37.97,22.00,17.39,18.27,0.00,0.00,2.83,23.57,0.00,0.00,4.63,16.57,0.00,19.18,2.96,0.00,0.00,0.00,0.00,12.44,2.82,0.00,2.89,20.61,0.00,9.84,2.04,4.40,0.00,0.00,0.26
1,43.51,40.51,24.00,19.72,17.91,0.00,0.00,2.70,24.67,0.00,0.00,5.01,16.89,0.00,17.81,3.04,0.00,0.00,0.00,0.00,13.29,2.82,0.00,3.23,21.28,0.00,13.11,2.30,4.73,0.00,0.00,0.31
1,47.77,46.84,32.00,23.42,17.39,0.00,0.00,2.62,25.50,0.00,0.00,5.20,18.17,0.00,19.18,3.62,0.00,0.00,0.00,0.00,13.81,2.82,0.00,3.41,21.41,0.00,14.75,2.28,5.03,0.00,0.00,0.34
1,50.95,51.90,34.00,25.41,17.21,0.00,0.00,2.61,25.96,0.00,0.00,5.08,18.44,0.00,20.55,3.66,0.00,0.00,0.00,0.00,14.62,2.82,0.00,3.54,22.86,0.00,18.03,2.51,5.45,0.00,0.00,0.42
1,53.21,55.70,38.00,26.45,17.75,0.00,0.00,2.82,26.05,0.00,0.00,5.19,19.19,0.00,23.29,3.78,0.00,0.00,0.00,0.00,15.40,2.82,0.00,3.82,23.40,0.00,19.67,2.62,5.77,0.00,0.00,0.47
1,56.02,59.49,40.00,29.25,17.15,0.00,0.00,2.69,26.41,0.00,0.00,5.30,19.50,0.00,21.92,4.01,0.00,0.00,0.00,0.00,15.54,2.82,0.00,3.87,23.48,0.00,18.03,2.64,6.05,0.00,0.00,0.51
1,57.35,62.03,40.00,29.63,16.09,0.00,0.00,2.26,26.82,0.00,0.00,5.54,19.77,0.00,21.92,4.12,0.00,0.00,0.00,0.00,15.25,2.82,0.00,3.80,23.90,0.00,18.03,2.66,6.28,0.00,0.00,0.53
1,58.64,64.56,44.00,30.43,16.95,0.00,0.00,2.41,27.33,0.00,0.00,5.80,19.95,0.00,21.92,4.17,0.00,0.00,0.00,0.00,15.84,2.82,0.00,4.04,23.95,0.00,19.67,2.66,6.34,0.00,0.00,0.54
1,61.51,68.35,46.00,33.39,17.00,0.00,0.00,2.50,27.12,0.00,0.00,5.72,20.22,0.00,21.92,4.20,0.00,0.00,0.00,0.00,15.91,2.82,0.00,4.02,23.79,0.00,18.03,2.65,6.60,0.00,0.00,0.55
1,65.44,73.42,48.00,36.33,16.63,0.00,0.00,2.41,27.03,0.00,0.00,5.75,20.60,0.00,24.66,4.22,0.00,0.00,0.00,0.00,16.58,2.82,0.00,4.32,23.61,0.00,18.03,2.61,6.79,0.00,0.00,0.56
1,69.58,78.48,52.00,39.13,16.90,0.00,0.00,2.58,28.15,0.00,0.00,6.48,20.94,0.00,24.66,4.26,0.00,0.00,0.00,0.00,16.85,2.82,0.00,4.37,23.62,0.00,18.03,2.67,6.94,0.00,0.00,0.57
1,71.83,81.01,56.00,41.09,16.53,0.00,0.00,2.52,29.40,0.00,0.00,7.07,20.90,0.00,26.03,4.23,0.00,0.00,0.00,0.00,17.12,2.82,0.00,4.58,23.51,0.00,18.03,2.69,7.16,0.00,0.00,0.60
1,73.30,83.54,58.00,42.35,16.79,0.00,2.33,2.75,29.39,0.00,0.00,7.16,21.01,0.00,27.40,4.26,0.00,0.00,0.00,0.00,17.34,2.82,0.00,4.62,23.94,0.00,18.03,2.69,7.21,0.00,0.00,0.61
1,74.40,84.81,60.00,42.83,16.69,0.00,2.33,2.81,29.28,0.00,0.00,7.34,21.30,0.00,28.77,4.44,0.00,0.00,0.00,0.00,17.84,2.82,0.00,4.75,24.82,0.00,19.67,2.80,7.20,0.00,0.00,0.60
1,74.99,83.54,60.00,43.24,16.99,0.00,2.33,2.93,29.43,0.00,0.00,7.41,21.73,0.00,28.77,4.51,0.00,0.00,0.00,0.00,17.83,2.82,0.00,4.69,24.21,0.00,21.31,2.71,7.15,0.00,0.00,0.60
1,74.47,82.28,60.00,42.66,17.70,0.00,2.33,3.07,29.38,0.00,0.00,7.40,21.20,0.00,27.40,4.35,0.00,0.00,0.00,0.00,16.72,2.82,0.00,4.46,25.06,0.00,24.59,2.91,7.08,0.00,0.00,0.59
1,76.32,87.34,64.00,44.44,18.14,0.00,2.33,3.19,31.08,0.00,0.00,7.98,20.66,0.00,27.40,4.10,0.00,0.00,0.00,0.00,15.93,1.41,0.00,3.92,24.83,0.00,22.95,2.86,7.18,0.00,0.00,0.60
1,76.18,87.34,64.00,43.29,17.94,0.00,2.33,3.17,31.80,0.00,0.00,8.19,20.60,0.00,28.77,3.98,0.00,0.00,0.00,0.00,15.16,0.00,0.00,3.49,25.17,0.00,24.59,2.92,7.24,0.00,0.00,0.61
1,73.55,82.28,60.00,41.21,18.10,0.00,2.33,3.44,33.02,0.00,0.00,8.91,20.37,0.00,28.77,3.88,0.00,0.00,0.00,0.00,15.32,0.00,0.00,3.49,25.71,0.00,26.23,3.02,7.40,0.00,0.00,0.62
1,70.04,77.22,54.00,38.54,18.18,0.00,2.33,3.40,33.14,0.00,0.00,9.18,20.11,0.00,28.77,3.85,0.00,0.00,0.00,0.00,15.46,0.00,0.00,3.57,25.62,0.00,26.23,3.03,7.45,0.00,0.00,0.63
1,69.33,73.42,52.00,38.46,18.14,0.00,2.33,3.35,33.18,0.00,0.00,9.30,20.75,0.00,30.14,4.17,0.00,0.00,0.00,0.00,15.71,0.00,0.00,3.71,25.16,0.00,26.23,3.00,7.30,0.00,0.00,0.61
1,65.41,67.09,46.00,35.95,17.91,0.00,2.33,3.33,33.01,0.00,0.00,9.38,20.80,0.00,28.77,4.16,0.00,0.00,0.00,0.00,15.59,0.00,0.00,3.62,24.73,0.00,24.59,3.00,6.79,0.00,0.00,0.54
1,67.23,72.15,52.00,36.97,17.94,0.00,2.33,3.28,31.65,0.00,0.00,8.92,20.90,0.00,30.14,4.22,0.00,0.00,0.00,0.00,15.27,0.00,0.00,3.38,23.29,0.00,21.31,2.47,6.35,0.00,0.00,0.47
1,65.45,69.62,46.00,35.78,18.38,0.00,2.33,3.39,31.90,0.00,0.00,9.00,19.47,0.00,28.77,3.70,0.00,0.00,0.00,0.00,15.02,0.00,0.00,3.28,22.91,0.00,19.67,2.41,6.41,0.00,0.00,0.46
1,64.73,68.35,46.00,34.62,19.10,0.00,2.33,3.60,30.18,0.00,0.00,8.59,19.39,0.00,28.77,3.67,0.00,0.00,0.00,0.00,14.72,0.00,0.00,3.23,22.29,0.00,16.39,2.22,5.81,0.00,0.00,0.37
1,64.75,69.62,46.00,35.05,19.42,0.00,2.33,3.86,28.98,0.00,0.00,8.23,18.66,0.00,26.03,3.56,0.00,0.00,0.00,0.00,14.09,0.00,0.00,3.07,22.00,0.00,14.75,2.18,5.45,0.00,0.00,0.32
1,61.76,67.09,42.00,32.66,19.71,0.00,2.33,3.82,28.24,0.00,0.00,7.94,17.94,0.00,24.66,3.29,0.00,0.00,0.00,0.00,13.68,0.00,0.00,2.96,21.96,0.00,16.39,2.16,5.32,0.00,0.00,0.29
1,63.69,69.62,46.00,32.94,20.69,0.00,2.33,4.06,28.64,0.00,0.00,7.94,17.45,0.00,24.66,3.11,0.00,0.00,0.00,0.00,13.91,0.00,0.00,3.00,21.37,0.00,16.39,2.05,5.18,0.00,0.00,0.27
1,65.12,69.62,44.00,34.94,19.84,0.00,2.33,3.93,28.64,0.00,0.00,7.74,17.01,0.00,23.29,2.95,0.00,0.00,0.00,0.00,13.50,0.00,0.00,2.81,21.09,0.00,14.75,2.04,5.11,0.00,0.00,0.26
1,65.34,72.15,46.00,34.26,19.52,0.00,2.33,3.81,29.03,0.00,0.00,8.32,17.07,0.00,23.29,3.20,0.00,0.00,0.00,0.00,13.35,0.00,0.00,2.73,21.01,0.00,14.75,2.01,4.96,0.00,0.00,0.25
1,63.29,70.89,44.00,31.11,19.66,0.00,2.33,3.96,29.19,0.00,0.00,8.82,16.74,0.00,20.55,3.26,0.00,0.00,0.00,0.00,12.68,0.00,0.00,2.43,21.20,0.00,14.75,2.03,4.71,0.00,0.00,0.24
1,61.13,65.82,42.00,30.05,19.42,0.00,2.33,3.83,28.04,0.00,0.00,8.26,17.08,0.00,20.55,3.51,0.00,0.00,0.00,0.00,12.50,0.00,0.00,2.36,21.09,0.00,13.11,1.98,4.57,0.00,0.00,0.24
1,57.28,60.76,36.00,27.24,19.56,0.00,2.33,3.88,27.76,0.00,0.00,8.06,17.37,0.00,21.92,3.54,0.00,0.00,0.00,0.00,11.74,0.00,0.00,2.05,20.96,0.00,13.11,1.97,4.33,0.00,0.00,0.20
1,57.09,60.76,36.00,26.15,19.74,0.00,2.33,3.91,27.77,0.00,0.00,8.03,17.23,0.00,20.55,3.58,0.00,0.00,0.00,0.00,11.84,0.00,0.00,2.06,20.83,0.00,13.11,1.97,4.29,0.00,0.00,0.20
1,56.98,62.03,34.00,26.67,18.55,0.00,0.00,3.42,27.12,0.00,0.00,7.72,16.76,0.00,19.18,3.38,0.00,0.00,0.00,0.00,11.54,0.00,0.00,1.97,20.62,0.00,13.11,1.90,4.32,0.00,0.00,0.20
1,57.65,64.56,34.00,26.52,18.38,0.00,0.00,3.43,27.55,0.00,0.00,8.00,17.21,0.00,19.18,3.70,0.00,0.00,0.00,0.00,11.69,0.00,0.00,2.07,20.83,0.00,11.48,1.95,4.31,0.00,0.00,0.20
1,58.25,67.09,34.00,27.22,18.24,0.00,0.00,3.35,28.87,2.56,0.00,8.68,17.02,0.00,17.81,3.69,0.00,0.00,0.00,0.00,11.83,0.00,0.00,2.06,19.75,0.00,8.20,1.73,4.45,0.00,0.00,0.20
1,57.90,65.82,32.00,27.47,18.02,0.00,0.00,3.31,28.00,2.56,0.00,8.36,17.10,0.00,16.44,3.79,0.00,0.00,0.00,0.00,11.86,0.00,0.00,2.12,19.75,0.00,9.84,1.73,4.48,0.00,0.00,0.21
1,55.45,62.03,30.00,25.95,18.42,0.00,0.00,3.38,27.16,2.56,0.00,8.21,16.63,0.00,15.07,3.80,0.00,0.00,0.00,0.00,11.91,0.00,0.00,2.12,19.50,0.00,8.20,1.70,4.24,0.00,0.00,0.18
1,55.31,63.29,30.00,25.81,18.20,0.00,0.00,3.21,26.12,2.56,0.00,7.75,17.34,0.00,16.44,4.16,0.00,0.00,0.00,0.00,11.76,0.00,0.00,2.11,19.47,0.00,9.84,1.68,3.99,0.00,0.00,0.16
1,57.27,64.56,30.00,27.29,18.78,0.00,0.00,3.52,27.30,2.56,0.00,8.46,17.51,0.00,16.44,4.14,0.00,0.00,0.00,0.00,11.92,0.00,0.00,2.09,20.25,0.00,13.11,1.83,3.95,0.00,0.00,0.15
1,55.44,63.29,30.00,26.66,18.70,0.00,0.00,3.56,27.04,2.56,0.00,8.25,16.64,0.00,15.07,3.83,0.00,0.00,0.00,0.00,11.91,0.00,0.00,2.09,20.76,0.00,13.11,1.88,3.86,0.00,0.00,0.15
1,55.19,62.03,28.00,26.27,19.28,0.00,0.00,3.64,26.77,2.56,0.00,8.06,16.53,0.00,13.70,3.72,0.00,0.00,0.00,0.00,11.75,0.00,0.00,1.97,20.60,0.00,13.11,1.85,3.87,0.00,0.00,0.15
1,54.83,62.03,24.00,26.17,19.68,0.00,0.00,3.78,27.61,2.56,0.00,8.57,16.36,0.00,12.33,3.64,0.00,0.00,0.00,0.00,11.89,0.00,0.00,2.03,21.25,0.00,14.75,1.97,3.82,0.00,0.00,0.15
1,52.87,59.49,20.00,24.39,19.51,0.00,0.00,3.83,26.83,2.56,0.00,8.36,15.93,0.00,10.96,3.45,0.00,0.00,0.00,0.00,11.94,0.00,0.00,2.12,21.06,0.00,14.75,1.95,3.76,0.00,0.00,0.14
1,51.45,55.70,16.00,23.12,19.67,0.00,0.00,3.83,26.94,2.56,0.00,8.61,15.67,0.00,8.22,3.38,0.00,0.00,0.00,0.00,12.22,0.00,0.00,2.22,21.86,0.00,16.39,2.10,3.83,0.00,0.00,0.15
1,51.29,53.16,14.00,22.30,19.14,0.00,0.00,3.58,27.31,2.56,0.00,8.53,15.85,0.00,8.22,3.39,0.00,0.00,0.00,0.00,12.13,0.00,0.00,2.19,21.89,0.00,18.03,2.13,3.75,0.00,0.00,0.15
1,50.49,50.63,14.00,22.06,18.83,0.00,0.00,3.44,28.58,2.56,0.00,9.43,16.11,0.00,8.22,3.71,0.00,0.00,0.00,0.00,12.25,0.00,0.00,2.19,21.36,0.00,16.39,2.04,3.65,0.00,0.00,0.14
1,50.74,50.63,12.00,21.98,17.88,0.00,0.00,3.25,28.39,2.56,0.00,9.59,16.47,0.00,8.22,3.83,0.00,0.00,0.00,0.00,12.33,0.00,0.00,2.19,21.99,0.00,16.39,2.09,3.67,0.00,0.00,0.14
1,49.01,50.63,8.00,20.02,17.73,0.00,0.00,3.18,29.03,2.56,0.00,10.31,16.66,0.00,8.22,3.85,0.00,0.00,0.00,0.00,12.00,0.00,0.00,2.11,21.92,0.00,18.03,2.14,3.83,0.00,0.00,0.15
1,47.87,46.84,6.00,19.48,17.77,0.00,0.00,3.19,30.67,5.13,0.00,11.63,17.00,0.00,10.96,3.85,0.00,0.00,0.00,0.00,12.18,0.00,0.00,2.17,22.36,0.00,18.03,2.18,3.77,0.00,0.00,0.15
1,46.21,45.57,4.00,18.74,18.27,0.00,0.00,3.25,30.61,5.13,0.00,11.39,17.02,0.00,12.33,3.87,0.00,0.00,0.00,0.00,12.90,0.00,0.00,2.40,23.31,0.00,19.67,2.33,3.78,0.00,0.00,0.15
1,46.26,45.57,4.00,18.18,18.49,0.00,0.00,3.26,30.50,5.13,0.00,10.87,16.62,0.00,12.33,3.59,0.00,0.00,0.00,0.00,12.94,0.00,0.00,2.41,23.16,0.00,19.67,2.29,3.72,0.00,0.00,0.15
1,47.05,46.84,4.00,18.38,18.47,0.00,0.00,3.20,29.88,5.13,0.00,10.75,16.08,0.00,9.59,3.58,0.00,0.00,0.00,0.00,12.89,0.00,0.00,2.39,23.23,0.00,19.67,2.34,3.69,0.00,0.00,0.14
1,48.47,48.10,6.00,19.89,18.40,0.00,0.00,3.20,29.62,5.13,0.00,10.61,16.63,0.00,12.33,3.74,0.00,0.00,0.00,0.00,12.96,0.00,0.00,2.43,23.54,0.00,19.67,2.47,3.72,0.00,0.00,0.14
1,46.93,45.57,4.00,18.73,18.89,0.00,0.00,3.35,30.16,5.13,0.00,10.83,16.52,0.00,12.33,3.68,0.00,0.00,0.00,0.00,12.78,0.00,0.00,2.39,23.54,0.00,19.67,2.45,3.63,0.00,0.00,0.14
1,46.90,44.30,6.00,19.08,18.28,0.00,0.00,3.21,30.22,5.13,0.00,10.75,15.62,0.00,10.96,3.28,0.00,0.00,0.00,0.00,12.58,0.00,0.00,2.35,22.29,0.00,16.39,2.31,3.60,0.00,0.00,0.13
1,46.10,43.04,6.00,18.26,18.03,0.00,0.00,3.14,29.64,2.56,0.00,10.33,16.15,0.00,13.70,3.49,0.00,0.00,0.00,0.00,12.39,0.00,0.00,2.27,22.36,0.00,16.39,2.34,3.53,0.00,0.00,0.13
1,47.03,43.04,10.00,18.93,18.25,0.00,0.00,3.22,29.91,2.56,0.00,10.46,16.54,0.00,15.07,3.54,0.00,0.00,0.00,0.00,12.53,0.00,0.00,2.28,22.05,0.00,14.75,2.30,3.49,0.00,0.00,0.14
1,47.08,41.77,10.00,18.83,17.57,0.00,0.00,3.06,29.72,2.56,0.00,10.40,16.25,0.00,13.70,3.45,0.00,0.00,0.00,0.00,12.46,0.00,0.00,2.26,21.72,0.00,14.75,2.28,3.52,0.00,0.00,0.14
1,45.96,37.97,10.00,18.45,17.65,0.00,0.00,3.09,30.24,2.56,0.00,10.38,15.48,0.00,12.33,3.10,0.00,0.00,0.00,0.00,12.70,0.00,0.00,2.33,21.31,0.00,11.48,2.23,3.40,0.00,0.00,0.13
1,44.71,36.71,10.00,17.36,17.80,0.00,0.00,3.20,28.82,2.56,0.00,9.45,15.50,0.00,12.33,3.10,0.00,0.00,0.00,0.00,12.73,0.00,0.00,2.34,21.22,0.00,9.84,2.20,3.39,0.00,0.00,0.13
1,43.34,35.44,8.00,15.60,18.36,0.00,0.00,3.19,27.95,2.56,0.00,9.10,15.74,0.00,13.70,3.17,0.00,0.00,0.00,0.00,12.94,0.00,0.00,2.40,21.73,0.00,11.48,2.23,3.42,0.00,0.00,0.14
1,44.35,37.97,8.00,16.46,18.20,0.00,0.00,3.26,27.90,2.56,0.00,9.48,15.88,0.00,15.07,3.22,0.00,0.00,0.00,0.00,12.63,0.00,0.00,2.33,21.60,0.00,13.11,2.31,3.47,0.00,0.00,0.14
1,42.55,34.18,8.00,15.49,17.73,0.00,0.00,3.08,28.11,2.56,0.00,9.59,16.11,0.00,16.44,3.28,0.00,0.00,0.00,0.00,12.22,0.00,0.00,2.27,21.39,0.00,11.48,2.22,3.55,0.00,0.00,0.14
1,42.01,32.91,8.00,15.01,18.53,0.00,0.00,3.23,28.02,2.56,0.00,9.34,16.57,0.00,16.44,3.37,0.00,0.00,0.00,0.00,11.47,0.00,0.00,1.92,22.32,0.00,14.75,2.33,3.69,0.00,0.00,0.15
1,42.62,32.91,10.00,15.44,18.61,0.00,0.00,3.17,27.65,2.56,0.00,9.17,16.74,0.00,17.81,3.45,0.00,0.00,0.00,0.00,11.40,0.00,0.00,1.89,22.08,0.00,14.75,2.39,3.70,0.00,0.00,0.15
1,41.15,31.65,10.00,15.07,18.65,0.00,0.00,3.23,27.97,2.56,0.00,9.36,16.52,0.00,17.81,3.38,0.00,0.00,0.00,0.00,11.28,0.00,0.00,1.81,21.86,0.00,14.75,2.35,3.75,0.00,0.00,0.15
1,41.05,31.65,10.00,14.75,19.34,0.00,0.00,3.50,27.13,2.56,0.00,8.59,16.39,0.00,17.81,3.13,0.00,0.00,0.00,0.00,11.25,0.00,0.00,1.84,21.97,0.00,14.75,2.45,3.71,0.00,0.00,0.15
1,42.48,32.91,14.00,15.82,19.76,0.00,0.00,3.54,26.97,2.56,0.00,8.38,16.15,0.00,17.81,3.07,0.00,0.00,0.00,0.00,11.03,0.00,0.00,1.79,21.98,0.00,14.75,2.45,3.59,0.00,0.00,0.15
1,43.07,32.91,16.00,16.36,20.46,0.00,0.00,3.79,25.50,2.56,0.00,7.49,16.02,0.00,17.81,3.04,0.00,0.00,0.00,0.00,10.78,0.00,0.00,1.74,21.62,0.00,13.11,2.37,3.45,0.00,0.00,0.14
1,42.78,32.91,16.00,16.08,20.66,0.00,0.00,3.88,24.15,0.00,0.00,6.36,15.95,0.00,16.44,2.93,0.00,0.00,0.00,0.00,10.66,0.00,0.00,1.71,21.37,0.00,13.11,2.34,3.30,0.00,0.00,0.13
1,44.16,35.44,20.00,17.06,20.46,0.00,0.00,3.80,23.91,0.00,0.00,5.91,15.54,0.00,15.07,2.73,0.00,0.00,0.00,0.00,9.93,0.00,0.00,1.51,20.24,0.00,11.48,2.18,3.44,0.00,0.00,0.14
1,44.04,35.44,20.00,17.11,20.24,0.00,0.00,3.69,23.92,0.00,0.00,6.17,15.74,0.00,13.70,2.73,0.00,0.00,0.00,0.00,10.27,0.00,0.00,1.50,19.95,0.00,11.48,2.11,3.33,0.00,0.00,0.13
1,43.38,35.44,20.00,16.97,20.70,0.00,0.00,3.78,23.68,0.00,0.00,6.00,15.73,0.00,13.70,2.67,0.00,0.00,0.00,0.00,10.44,0.00,0.00,1.57,20.64,0.00,13.11,2.19,3.33,0.00,0.00,0.13
1,41.22,32.91,18.00,15.34,21.13,0.00,0.00,3.85,24.19,0.00,0.00,6.21,15.16,0.00,10.96,2.38,0.00,0.00,0.00,0.00,10.46,0.00,0.00,1.54,19.77,0.00,13.11,1.96,3.30,0.00,0.00,0.13
1,41.87,32.91,18.00,15.51,21.14,0.00,0.00,3.82,23.87,0.00,0.00,6.07,15.18,0.00,10.96,2.38,0.00,0.00,0.00,0.00,10.22,0.00,0.00,1.50,19.84,0.00,13.11,1.99,3.25,0.00,0.00,0.13
1,40.27,29.11,16.00,14.65,21.61,0.00,0.00,4.07,23.50,0.00,0.00,5.96,15.56,0.00,12.33,2.51,0.00,0.00,0.00,0.00,10.55,0.00,0.00,1.62,20.17,0.00,13.11,2.03,3.37,0.00,0.00,0.14
1,41.04,30.38,16.00,14.98,21.50,0.00,0.00,4.04,22.82,0.00,0.00,5.48,14.51,0.00,9.59,2.15,0.00,0.00,0.00,0.00,10.57,0.00,0.00,1.68,20.30,0.00,13.11,2.00,3.45,0.00,0.00,0.14
1,40.41,29.11,14.00,14.70,22.10,0.00,0.00,4.28,22.90,0.00,0.00,5.47,14.23,0.00,9.59,1.99,0.00,0.00,0.00,0.00,10.29,0.00,0.00,1.63,20.56,0.00,13.11,2.00,3.25,0.00,0.00,0.12
1,40.83,30.38,14.00,14.76,21.94,0.00,0.00,4.20,23.21,0.00,0.00,5.51,14.49,0.00,10.96,2.03,0.00,0.00,0.00,0.00,10.89,0.00,0.00,1.73,21.14,0.00,13.11,2.11,3.21,0.00,0.00,0.12
1,42.88,34.18,14.00,15.81,21.84,0.00,0.00,4.20,22.73,0.00,0.00,5.34,14.87,0.00,12.33,2.15,0.00,0.00,0.00,0.00,10.15,0.00,0.00,1.59,21.36,0.00,13.11,2.13,3.24,0.00,0.00,0.12
1,42.61,35.44,14.00,15.73,21.48,0.00,0.00,4.00,22.86,0.00,0.00,5.34,14.98,0.00,13.70,2.12,0.00,0.00,0.00,0.00,9.76,0.00,0.00,1.49,20.87,0.00,11.48,2.03,3.33,0.00,0.00,0.12
1,43.82,37.97,14.00,16.90,21.00,0.00,0.00,3.94,23.81,0.00,0.00,5.78,15.29,0.00,13.70,2.28,0.00,0.00,0.00,0.00,9.19,0.00,0.00,1.33,19.93,0.00,9.84,1.91,3.30,0.00,0.00,0.13
1,42.51,34.18,14.00,15.70,21.03,0.00,0.00,3.93,24.00,0.00,0.00,5.50,14.97,0.00,12.33,2.20,0.00,0.00,0.00,0.00,9.50,0.00,0.00,1.37,19.40,0.00,8.20,1.78,3.25,0.00,0.00,0.13
1,42.89,35.44,14.00,15.86,20.72,0.00,0.00,3.82,23.49,0.00,0.00,5.16,15.01,0.00,12.33,2.25,0.00,0.00,0.00,0.00,9.70,0.00,0.00,1.40,19.50,0.00,8.20,1.83,3.32,0.00,0.00,0.13
1,42.18,34.18,14.00,15.73,19.83,0.00,0.00,3.57,23.62,0.00,0.00,5.16,14.69,0.00,12.33,2.22,0.00,0.00,0.00,0.00,9.56,0.00,0.00,1.39,18.76,0.00,4.92,1.74,3.23,0.00,0.00,0.13
1,41.53,34.18,12.00,15.70,19.71,0.00,0.00,3.52,23.86,0.00,0.00,5.27,14.42,0.00,12.33,2.20,0.00,0.00,0.00,0.00,9.25,0.00,0.00,1.29,17.92,0.00,3.28,1.55,3.24,0.00,0.00,0.13
1,42.76,35.44,12.00,15.90,18.86,0.00,0.00,3.34,24.08,0.00,0.00,5.05,14.81,0.00,13.70,2.22,0.00,0.00,0.00,0.00,9.35,0.00,0.00,1.30,17.89,0.00,1.64,1.54,3.30,0.00,0.00,0.14
1,44.20,37.97,14.00,16.96,18.89,0.00,0.00,3.28,23.79,0.00,0.00,4.93,14.90,0.00,13.70,2.18,0.00,0.00,0.00,0.00,9.45,0.00,0.00,1.29,17.56,0.00,1.64,1.43,3.34,0.00,0.00,0.14
1,42.92,36.71,10.00,16.42,18.18,0.00,0.00,3.13,23.37,0.00,0.00,4.78,14.90,0.00,13.70,2.17,0.00,0.00,0.00,0.00,9.66,0.00,0.00,1.30,17.96,0.00,3.28,1.45,3.37,0.00,0.00,0.14
1,42.65,36.71,10.00,16.31,17.27,0.00,0.00,2.97,24.45,0.00,0.00,4.96,14.75,0.00,13.70,2.11,0.00,0.00,0.00,0.00,10.17,0.00,0.00,1.58,17.81,0.00,3.28,1.45,3.40,0.00,0.00,0.14
1,43.68,40.51,10.00,16.78,17.35,0.00,0.00,2.91,24.11,0.00,0.00,4.61,14.40,0.00,12.33,2.04,0.00,0.00,0.00,0.00,10.44,0.00,0.00,1.61,18.32,0.00,4.92,1.55,3.49,0.00,0.00,0.14
1,43.42,37.97,8.00,16.79,17.08,0.00,0.00,2.91,24.45,0.00,0.00,4.68,14.62,0.00,13.70,2.06,0.00,0.00,0.00,0.00,10.50,0.00,0.00,1.63,18.40,0.00,4.92,1.52,3.34,0.00,0.00,0.13
1,44.63,40.51,10.00,17.99,16.73,0.00,0.00,2.82,24.40,0.00,0.00,4.52,14.91,0.00,16.44,2.14,0.00,0.00,0.00,0.00,10.61,0.00,0.00,1.71,18.94,0.00,4.92,1.58,3.34,0.00,0.00,0.13
1,44.09,39.24,10.00,17.77,16.89,0.00,0.00,2.90,24.17,0.00,0.00,4.41,14.45,0.00,16.44,2.10,0.00,0.00,0.00,0.00,10.42,0.00,0.00,1.70,18.62,0.00,3.28,1.54,3.35,0.00,0.00,0.13
1,45.04,40.51,12.00,18.07,16.34,0.00,0.00,2.75,23.67,0.00,0.00,4.47,14.56,0.00,17.81,2.11,0.00,0.00,0.00,0.00,10.13,0.00,0.00,1.66,19.27,0.00,3.28,1.60,3.46,0.00,0.00,0.14
1,45.18,41.77,14.00,18.45,16.55,0.00,0.00,2.74,23.81,0.00,0.00,4.43,14.50,0.00,17.81,2.13,0.00,0.00,0.00,0.00,10.32,0.00,0.00,1.68,19.70,0.00,4.92,1.67,3.45,0.00,0.00,0.14
1,46.97,44.30,16.00,19.77,16.15,0.00,0.00,2.56,23.74,0.00,0.00,4.38,14.92,0.00,17.81,2.21,0.00,0.00,0.00,0.00,10.13,0.00,0.00,1.58,19.28,0.00,4.92,1.64,3.50,0.00,0.00,0.14
1,47.17,45.57,16.00,19.85,16.19,0.00,0.00,2.57,23.84,0.00,0.00,4.69,15.22,0.00,17.81,2.24,0.00,0.00,0.00,0.00,10.03,0.00,0.00,1.52,20.01,0.00,4.92,1.79,3.57,0.00,0.00,0.14
1,46.79,45.57,16.00,19.56,16.08,0.00,0.00,2.47,23.60,0.00,0.00,4.62,15.35,0.00,17.81,2.28,0.00,0.00,0.00,0.00,10.35,0.00,0.00,1.59,20.20,0.00,4.92,1.83,3.59,0.00,0.00,0.14
1,46.94,45.57,16.00,19.63,15.77,0.00,0.00,2.37,22.97,0.00,0.00,4.47,15.09,0.00,16.44,2.20,0.00,0.00,0.00,0.00,9.66,0.00,0.00,1.44,20.53,0.00,8.20,1.84,3.58,0.00,0.00,0.15
1,47.12,45.57,18.00,20.25,15.97,0.00,0.00,2.49,22.83,0.00,0.00,4.57,14.89,0.00,15.07,2.20,0.00,0.00,0.00,0.00,10.16,0.00,0.00,1.58,20.28,0.00,8.20,1.79,3.58,0.00,0.00,0.14
1,47.34,44.30,18.00,19.83,15.74,0.00,0.00,2.29,22.97,0.00,0.00,4.69,15.31,0.00,16.44,2.31,0.00,0.00,0.00,0.00,10.77,0.00,0.00,1.68,20.40,0.00,9.84,1.80,3.61,0.00,0.00,0.14
1,47.84,45.57,18.00,19.45,16.22,0.00,0.00,2.34,23.43,0.00,0.00,4.71,14.76,0.00,16.44,2.16,0.00,0.00,0.00,0.00,11.64,0.00,0.00,2.01,20.46,0.00,9.84,1.81,3.61,0.00,0.00,0.14
1,48.76,49.37,20.00,19.81,16.22,0.00,0.00,2.35,22.76,0.00,0.00,4.43,15.28,0.00,19.18,2.32,0.00,0.00,0.00,0.00,11.69,0.00,0.00,2.05,20.93,0.00,9.84,1.86,3.64,0.00,0.00,0.14
1,52.11,51.90,26.00,22.12,15.99,0.00,0.00,2.30,22.42,0.00,0.00,4.50,14.98,0.00,17.81,2.29,0.00,0.00,0.00,0.00,12.26,0.00,0.00,2.21,20.77,0.00,9.84,1.85,3.58,0.00,0.00,0.14
1,55.11,54.43,32.00,24.78,16.06,0.00,0.00,2.28,22.94,0.00,0.00,4.72,15.16,0.00,19.18,2.29,0.00,0.00,0.00,0.00,12.58,0.00,0.00,2.31,20.60,0.00,9.84,1.82,3.59,0.00,0.00,0.13
1,54.32,53.16,32.00,24.30,16.00,0.00,0.00,2.29,23.39,0.00,0.00,4.78,14.88,0.00,17.81,2.20,0.00,0.00,0.00,0.00,12.77,0.00,0.00,2.43,21.43,0.00,11.48,1.92,3.45,0.00,0.00,0.12
1,54.23,51.90,32.00,24.38,16.76,0.00,0.00,2.47,23.33,0.00,0.00,4.79,15.04,0.00,19.18,2.24,0.00,0.00,0.00,0.00,12.90,0.00,0.00,2.46,21.42,0.00,11.48,1.89,3.28,0.00,0.00,0.11
1,54.78,54.43,32.00,24.92,17.15,0.00,0.00,2.75,22.95,0.00,0.00,4.77,14.85,0.00,19.18,2.21,0.00,0.00,0.00,0.00,12.85,0.00,0.00,2.46,21.12,0.00,11.48,1.88,3.30,0.00,0.00,0.12
1,53.15,51.90,32.00,22.80,16.91,0.00,0.00,2.66,23.28,0.00,0.00,4.85,14.88,0.00,19.18,2.21,0.00,0.00,0.00,0.00,12.71,0.00,0.00,2.43,20.63,0.00,9.84,1.82,3.35,0.00,0.00,0.12
1,52.28,49.37,32.00,22.58,16.88,0.00,0.00,2.66,22.59,0.00,0.00,4.68,14.86,0.00,19.18,2.25,0.00,0.00,0.00,0.00,12.48,0.00,0.00,2.24,20.61,0.00,9.84,1.78,3.27,0.00,0.00,0.12
1,52.29,48.10,32.00,22.54,16.48,0.00,0.00,2.51,23.27,0.00,0.00,5.04,15.47,0.00,20.55,2.41,0.00,0.00,0.00,0.00,12.82,0.00,0.00,2.38,20.18,0.00,8.20,1.67,3.35,0.00,0.00,0.12
1,51.11,45.57,30.00,22.23,16.38,0.00,0.00,2.46,23.34,0.00,0.00,5.10,15.10,0.00,19.18,2.38,0.00,0.00,0.00,0.00,12.79,0.00,0.00,2.37,20.26,0.00,8.20,1.76,3.21,0.00,0.00,0.11
1,48.92,41.77,28.00,20.51,16.43,0.00,0.00,2.51,23.33,0.00,0.00,5.10,14.87,0.00,16.44,2.44,0.00,0.00,0.00,0.00,12.45,0.00,0.00,2.30,20.34,0.00,8.20,1.78,3.24,0.00,0.00,0.11
1,48.61,40.51,28.00,20.32,16.36,0.00,0.00,2.57,23.89,0.00,0.00,5.14,15.10,0.00,17.81,2.50,0.00,0.00,0.00,0.00,12.34,0.00,0.00,2.27,20.20,0.00,8.20,1.80,3.33,0.00,0.00,0.12
1,49.89,43.04,30.00,21.20,16.71,0.00,0.00,2.61,23.80,0.00,0.00,4.88,15.12,0.00,16.44,2.50,0.00,0.00,0.00,0.00,12.73,0.00,0.00,2.32,19.75,0.00,8.20,1.74,3.29,0.00,0.00,0.12
1,48.39,39.24,26.00,20.49,16.48,0.00,0.00,2.52,24.18,0.00,0.00,4.91,14.96,0.00,16.44,2.45,0.00,0.00,0.00,0.00,12.76,0.00,0.00,2.36,19.02,0.00,6.56,1.62,3.46,0.00,0.00,0.13
1,47.72,37.97,24.00,19.35,16.18,0.00,0.00,2.53,24.40,0.00,0.00,4.94,14.21,0.00,15.07,2.22,0.00,0.00,0.00,0.00,12.98,0.00,0.00,2.39,19.09,0.00,6.56,1.67,3.42,0.00,0.00,0.13
1,48.70,39.24,24.00,20.28,16.14,0.00,0.00,2.56,24.43,0.00,0.00,4.99,14.32,0.00,15.07,2.28,0.00,0.00,0.00,0.00,13.31,0.00,0.00,2.45,18.56,0.00,6.56,1.58,3.31,0.00,0.00,0.12
1,48.18,39.24,22.00,19.81,15.80,0.00,0.00,2.57,25.08,0.00,0.00,5.18,14.21,0.00,13.70,2.24,0.00,0.00,0.00,0.00,13.22,0.00,0.00,2.45,18.91,0.00,8.20,1.68,3.37,0.00,0.00,0.12
1,48.85,41.77,22.00,20.26,16.37,0.00,0.00,2.77,25.50,0.00,0.00,5.33,14.48,0.00,13.70,2.28,0.00,0.00,0.00,0.00,13.37,0.00,0.00,2.60,18.04,0.00,4.92,1.60,3.43,0.00,0.00,0.12
1,46.67,37.97,20.00,18.66,16.59,0.00,0.00,2.78,25.68,0.00,0.00,5.19,14.38,0.00,13.70,2.21,0.00,0.00,0.00,0.00,13.21,0.00,0.00,2.50,17.63,0.00,4.92,1.55,3.48,0.00,0.00,0.12
1,47.10,39.24,20.00,19.11,15.93,0.00,0.00,2.68,25.28,0.00,0.00,5.08,13.97,0.00,10.96,2.11,0.00,0.00,0.00,0.00,13.43,0.00,0.00,2.63,17.66,0.00,3.28,1.55,3.54,0.00,0.00,0.13
1,47.45,40.51,20.00,19.51,15.63,0.00,0.00,2.61,24.15,0.00,0.00,4.76,13.67,0.00,9.59,2.07,0.00,0.00,0.00,0.00,13.61,1.41,0.00,3.03,18.09,0.00,3.28,1.58,3.44,0.00,0.00,0.12
1,47.50,39.24,20.00,19.41,16.02,0.00,0.00,2.70,24.31,0.00,0.00,4.94,13.30,0.00,6.85,1.99,0.00,0.00,0.00,0.00,14.17,1.41,0.00,3.34,18.90,0.00,4.92,1.77,3.44,0.00,0.00,0.12
1,47.00,39.24,20.00,19.62,16.38,0.00,0.00,2.82,24.40,0.00,0.00,4.83,13.40,0.00,6.85,1.98,0.00,0.00,0.00,0.00,14.41,1.41,0.00,3.56,18.94,0.00,4.92,1.73,3.46,0.00,0.00,0.12
1,44.47,39.24,12.00,17.41,16.66,0.00,0.00,2.90,23.96,0.00,0.00,4.65,13.09,0.00,5.48,1.90,0.00,0.00,0.00,0.00,14.14,1.41,0.00,3.48,19.34,0.00,6.56,1.79,3.46,0.00,0.00,0.12
1,46.16,41.77,14.00,18.89,16.50,0.00,0.00,2.91,23.63,0.00,0.00,4.52,13.06,0.00,5.48,1.93,0.00,0.00,0.00,0.00,14.61,2.82,0.00,3.71,19.02,0.00,4.92,1.76,3.47,0.00,0.00,0.12
1,44.96,40.51,14.00,18.04,15.78,0.00,0.00,2.78,23.36,0.00,0.00,4.43,13.01,0.00,4.11,1.92,0.00,0.00,0.00,0.00,14.41,2.82,0.00,3.70,18.92,0.00,4.92,1.75,3.56,0.00,0.00,0.13
1,43.80,37.97,12.00,17.55,15.15,0.00,0.00,2.48,23.91,0.00,0.00,4.49,13.17,0.00,4.11,1.95,0.00,0.00,0.00,0.00,14.53,2.82,0.00,3.71,19.55,0.00,4.92,1.80,3.47,0.00,0.00,0.12
1,47.10,43.04,16.00,20.09,14.98,0.00,0.00,2.40,24.55,0.00,0.00,4.64,13.83,0.00,6.85,2.22,0.00,0.00,0.00,0.00,15.68,4.23,0.00,4.40,19.46,0.00,4.92,1.77,3.48,0.00,0.00,0.12
1,47.24,43.04,16.00,20.77,15.01,0.00,0.00,2.37,24.90,0.00,0.00,4.81,14.22,0.00,6.85,2.30,0.00,0.00,0.00,0.00,15.71,4.23,0.00,4.45,18.90,0.00,4.92,1.73,3.58,0.00,0.00,0.13
1,47.68,45.57,18.00,21.23,15.49,0.00,0.00,2.46,24.35,0.00,0.00,4.81,13.97,0.00,5.48,2.28,0.00,0.00,0.00,0.00,15.44,4.23,0.00,4.38,19.14,0.00,4.92,1.85,3.67,0.00,0.00,0.14
1,47.66,46.84,18.00,20.88,15.30,0.00,0.00,2.52,24.46,0.00,0.00,4.96,14.14,0.00,5.48,2.34,0.00,0.00,0.00,0.00,15.15,4.23,0.00,4.24,19.02,0.00,4.92,1.80,3.70,0.00,0.00,0.14
1,50.39,51.90,24.00,22.59,15.46,0.00,0.00,2.57,24.74,0.00,0.00,5.05,13.98,0.00,5.48,2.27,0.00,0.00,0.00,0.00,15.57,4.23,0.00,4.35,18.84,0.00,4.92,1.77,3.80,0.00,0.00,0.14
1,52.89,55.70,26.00,24.04,15.92,0.00,0.00,2.61,25.48,2.56,0.00,5.67,14.05,0.00,5.48,2.31,0.00,0.00,0.00,0.00,15.83,4.23,0.00,4.42,18.34,0.00,4.92,1.68,3.75,0.00,0.00,0.14
1,52.92,54.43,24.00,24.19,15.75,0.00,0.00,2.61,25.70,2.56,0.00,5.68,14.12,0.00,5.48,2.33,0.00,0.00,0.00,0.00,15.62,4.23,0.00,4.36,18.83,0.00,4.92,1.71,3.77,0.00,0.00,0.14
1,53.05,54.43,24.00,23.31,16.52,0.00,0.00,2.84,25.25,2.56,0.00,5.70,14.37,0.00,5.48,2.41,0.00,0.00,0.00,0.00,15.63,4.23,0.00,4.40,19.91,0.00,8.20,1.97,3.66,0.00,0.00,0.14
1,54.19,56.96,26.00,26.04,16.58,0.00,0.00,2.83,26.00,2.56,0.00,6.10,14.26,0.00,5.48,2.38,0.00,0.00,0.00,0.00,15.67,4.23,0.00,4.40,20.04,0.00,8.20,1.97,3.70,0.00,0.00,0.14
1,53.63,58.23,28.00,25.52,16.95,0.00,0.00,2.86,26.08,2.56,0.00,6.20,14.28,0.00,5.48,2.35,0.00,0.00,0.00,0.00,15.83,4.23,0.00,4.52,20.63,0.00,11.48,2.03,3.71,0.00,0.00,0.14
1,53.25,55.70,28.00,25.61,16.64,0.00,0.00,2.70,25.12,2.56,0.00,5.61,14.52,0.00,6.85,2.48,0.00,0.00,0.00,0.00,15.97,4.23,0.00,4.62,19.98,0.00,9.84,1.86,3.78,0.00,0.00,0.15
1,53.74,56.96,30.00,25.90,16.29,0.00,0.00,2.61,24.97,2.56,0.00,5.60,14.43,0.00,6.85,2.48,0.00,0.00,0.00,0.00,16.20,4.23,0.00,4.74,19.70,0.00,9.84,1.84,3.67,0.00,0.00,0.14
1,54.54,56.96,30.00,26.41,15.99,0.00,0.00,2.46,25.87,2.56,0.00,5.85,14.53,0.00,6.85,2.43,0.00,0.00,0.00,0.00,16.11,4.23,0.00,4.67,20.03,0.00,9.84,1.88,3.70,0.00,0.00,0.15
1,56.49,62.03,36.00,27.15,16.24,0.00,0.00,2.48,25.80,2.56,0.00,5.94,14.62,0.00,6.85,2.43,0.00,0.00,0.00,0.00,16.20,4.23,0.00,4.78,20.14,0.00,9.84,1.88,3.72,0.00,0.00,0.15
1,57.77,63.29,40.00,28.40,16.81,0.00,0.00,2.69,25.99,2.56,0.00,6.03,15.27,0.00,9.59,2.64,0.00,0.00,0.00,0.00,16.20,2.82,0.00,4.80,20.74,0.00,11.48,2.08,3.71,0.00,0.00,0.14
1,56.82,60.76,40.00,28.07,16.97,0.00,0.00,2.67,25.90,2.56,0.00,5.91,15.54,0.00,9.59,2.67,0.00,0.00,0.00,0.00,15.79,2.82,0.00,4.11,20.65,0.00,9.84,1.96,3.69,0.00,0.00,0.14
1,56.34,62.03,38.00,27.18,16.41,0.00,0.00,2.58,26.20,2.56,0.00,5.96,15.41,0.00,9.59,2.65,0.00,0.00,0.00,0.00,15.06,2.82,0.00,3.75,20.36,0.00,9.84,1.99,3.68,0.00,0.00,0.14
1,57.83,65.82,42.00,28.14,16.57,0.00,0.00,2.62,25.62,2.56,0.00,5.84,15.84,0.00,10.96,2.88,0.00,0.00,0.00,0.00,15.63,4.23,0.00,4.03,20.82,0.00,11.48,2.10,3.63,0.00,0.00,0.14
1,55.33,62.03,40.00,25.85,16.67,0.00,0.00,2.67,26.51,2.56,0.00,6.38,15.81,0.00,10.96,2.83,0.00,0.00,0.00,0.00,14.74,2.82,0.00,3.67,20.71,0.00,11.48,2.15,3.65,0.00,0.00,0.14
1,55.03,62.03,40.00,25.79,17.29,0.00,0.00,2.89,26.75,2.56,0.00,6.49,15.71,0.00,10.96,2.82,0.00,0.00,0.00,0.00,15.19,2.82,0.00,3.72,20.32,0.00,11.48,2.15,3.58,0.00,0.00,0.13
1,55.36,60.76,40.00,25.63,17.59,0.00,0.00,2.94,26.86,2.56,0.00,6.83,16.03,0.00,10.96,2.93,0.00,0.00,0.00,0.00,18.06,5.63,1.96,6.47,20.42,0.00,11.48,2.26,3.61,0.00,0.00,0.14
1,54.11,59.49,38.00,24.41,17.59,0.00,0.00,2.95,26.68,2.56,0.00,6.84,15.38,0.00,8.22,2.74,0.00,0.00,0.00,0.00,18.13,4.23,1.96,6.33,20.44,0.00,11.48,2.27,3.63,0.00,0.00,0.13
0,51.29,54.43,34.00,22.16,18.15,0.00,0.00,3.08,27.44,2.56,0.00,7.13,15.97,0.00,9.59,3.05,0.00,0.00,0.00,0.00,19.79,8.45,1.96,7.65,20.64,0.00,11.48,2.30,3.64,0.00,0.00,0.13
0,51.24,54.43,32.00,21.85,18.01,0.00,0.00,3.10,27.27,2.56,0.00,7.30,16.14,0.00,10.96,3.16,0.00,0.00,0.00,0.00,23.85,12.68,5.88,12.83,20.47,0.00,11.48,2.27,3.85,0.00,0.00,0.15
0,51.62,54.43,32.00,22.29,17.58,0.00,0.00,2.88,27.68,2.56,0.00,7.31,16.12,0.00,10.96,3.11,0.00,0.00,0.00,0.00,26.23,16.90,5.88,14.75,20.43,0.00,11.48,2.25,4.03,0.00,0.00,0.17
0,51.62,54.43,28.00,22.73,18.43,0.00,0.00,3.16,29.26,2.56,0.00,8.34,16.17,0.00,10.96,3.14,0.00,0.00,0.00,0.00,28.38,19.72,7.84,18.41,21.22,0.00,11.48,2.42,3.95,0.00,0.00,0.17
0,51.72,51.90,28.00,24.73,17.85,0.00,0.00,3.05,28.65,0.00,0.00,7.89,16.35,0.00,10.96,3.20,0.00,0.00,0.00,0.00,30.48,23.94,11.76,20.62,21.43,0.00,11.48,2.48,4.10,0.00,0.00,0.17
0,52.63,53.16,28.00,25.09,18.13,0.00,0.00,3.08,28.76,0.00,0.00,7.98,16.95,0.00,12.33,3.45,0.00,0.00,0.00,0.00,31.93,26.76,11.76,21.25,22.25,0.00,13.11,2.62,4.11,0.00,0.00,0.18
0,53.70,53.16,28.00,25.20,17.71,0.00,0.00,3.01,29.06,0.00,0.00,8.05,16.78,0.00,12.33,3.39,0.00,0.00,0.00,0.00,33.33,28.17,11.76,22.32,21.48,0.00,9.84,2.52,4.15,0.00,0.00,0.18
0,52.42,51.90,26.00,23.98,17.07,0.00,0.00,2.88,28.45,0.00,0.00,7.78,17.08,0.00,12.33,3.51,0.00,0.00,0.00,0.00,35.32,29.58,11.76,24.22,21.13,0.00,9.84,2.45,4.16,0.00,0.00,0.18
0,50.27,46.84,24.00,22.85,16.54,0.00,0.00,2.80,28.35,0.00,0.00,7.86,17.29,0.00,15.07,3.54,0.00,0.00,0.00,0.00,35.46,30.99,11.76,24.33,20.81,0.00,6.56,2.40,4.14,0.00,0.00,0.18
0,51.19,48.10,24.00,23.87,16.63,0.00,0.00,2.81,28.96,0.00,0.00,8.00,16.88,0.00,13.70,3.39,0.00,0.00,0.00,0.00,36.66,32.39,11.76,25.30,20.68,0.00,6.56,2.41,4.06,0.00,0.00,0.17
0,49.53,44.30,22.00,22.79,16.83,0.00,0.00,2.89,28.97,0.00,0.00,7.93,17.09,0.00,13.70,3.53,0.00,0.00,0.00,0.00,36.57,32.39,11.76,25.30,21.52,0.00,8.20,2.54,4.23,0.00,0.00,0.18
0,48.60,43.04,22.00,22.36,17.37,0.00,0.00,3.15,28.62,0.00,0.00,7.96,17.35,0.00,15.07,3.68,0.00,0.00,0.00,0.00,39.41,36.62,13.73,28.06,21.36,0.00,8.20,2.50,4.16,0.00,0.00,0.18
0,47.29,39.24,18.00,21.63,17.08,0.00,0.00,3.17,28.38,0.00,0.00,7.93,17.86,0.00,17.81,3.89,0.00,0.00,0.00,0.00,38.90,36.62,13.73,28.01,21.08,0.00,8.20,2.49,4.20,0.00,0.00,0.18
0,44.09,35.44,12.00,19.73,17.31,0.00,0.00,3.22,27.81,0.00,0.00,7.70,16.83,0.00,15.07,3.62,0.00,0.00,0.00,0.00,38.97,36.62,13.73,27.99,20.54,0.00,6.56,2.35,4.13,0.00,0.00,0.17
0,44.05,34.18,12.00,19.73,16.87,0.00,0.00,3.26,28.69,0.00,0.00,8.07,16.79,0.00,15.07,3.63,0.00,0.00,0.00,0.00,39.26,36.62,13.73,28.15,20.06,0.00,6.56,2.32,4.08,0.00,0.00,0.17
0,42.40,31.65,10.00,18.97,17.08,0.00,0.00,3.29,28.47,0.00,0.00,8.00,16.40,0.00,15.07,3.54,0.00,0.00,0.00,0.00,39.07,36.62,13.73,28.03,20.58,0.00,8.20,2.46,4.17,0.00,0.00,0.17
0,40.33,26.58,6.00,17.86,17.52,0.00,0.00,3.44,28.74,0.00,0.00,8.03,16.33,0.00,15.07,3.35,0.00,0.00,0.00,0.00,39.31,36.62,13.73,28.13,19.93,0.00,4.92,2.32,4.12,0.00,0.00,0.17
0,39.09,22.78,6.00,17.34,17.72,0.00,0.00,3.37,28.11,0.00,0.00,7.77,16.37,0.00,15.07,3.44,0.00,0.00,0.00,0.00,39.82,36.62,13.73,28.38,20.18,0.00,4.92,2.34,4.10,0.00,0.00,0.17
0,39.88,24.05,6.00,17.75,17.57,0.00,0.00,3.23,27.97,0.00,0.00,7.99,16.59,0.00,16.44,3.50,0.00,0.00,0.00,0.00,39.96,36.62,13.73,28.45,21.07,0.00,6.56,2.45,4.08,0.00,0.00,0.17
0,41.23,25.32,10.00,18.91,17.79,0.00,0.00,3.37,27.80,0.00,0.00,7.68,16.48,0.00,16.44,3.40,0.00,0.00,0.00,0.00,37.88,33.80,11.76,26.43,21.49,0.00,9.84,2.50,4.02,0.00,0.00,0.17
0,40.53,25.32,10.00,18.60,18.26,0.00,0.00,3.48,27.38,0.00,0.00,7.61,16.13,0.00,16.44,3.32,0.00,0.00,0.00,0.00,37.29,33.80,11.76,25.69,21.34,0.00,9.84,2.52,4.02,0.00,0.00,0.17
0,41.30,26.58,10.00,18.68,17.62,0.00,0.00,3.32,27.71,0.00,0.00,7.75,15.74,0.00,15.07,3.04,0.00,0.00,0.00,0.00,35.96,30.99,11.76,24.53,21.49,0.00,9.84,2.55,4.02,0.00,0.00,0.17
0,41.27,26.58,10.00,18.89,17.72,0.00,0.00,3.31,27.10,0.00,0.00,7.25,15.94,0.00,16.44,2.96,0.00,0.00,0.00,0.00,32.06,25.35,7.84,20.52,21.18,0.00,9.84,2.53,3.81,0.00,0.00,0.16
0,40.76,25.32,10.00,18.88,17.75,0.00,0.00,3.45,26.79,0.00,0.00,7.13,15.79,0.00,16.44,2.97,0.00,0.00,0.00,0.00,30.17,22.54,7.84,17.58,21.72,0.00,11.48,2.60,3.47,0.00,0.00,0.12
0,37.93,20.25,8.00,16.76,17.11,0.00,0.00,3.33,26.06,0.00,0.00,6.62,15.73,0.00,16.44,3.02,0.00,0.00,0.00,0.00,27.94,19.72,5.88,14.62,22.00,0.00,11.48,2.55,3.55,0.00,0.00,0.13
0,34.51,16.46,6.00,12.38,16.60,0.00,0.00,3.04,25.36,0.00,0.00,6.48,15.64,0.00,15.07,2.96,0.00,0.00,0.00,0.00,25.06,14.08,1.96,11.60,21.21,0.00,11.48,2.42,3.32,0.00,0.00,0.11
0,33.53,15.19,6.00,11.91,16.40,0.00,0.00,3.02,25.38,0.00,0.00,6.65,14.90,0.00,13.70,2.71,0.00,0.00,0.00,0.00,24.08,12.68,1.96,11.29,20.03,0.00,9.84,2.25,3.41,0.00,0.00,0.12
0,32.30,13.92,6.00,11.34,16.17,0.00,0.00,2.87,25.16,0.00,0.00,6.60,15.26,0.00,15.07,2.75,0.00,0.00,0.00,0.00,22.30,9.86,1.96,9.93,19.77,0.00,9.84,2.12,3.38,0.00,0.00,0.12
0,31.57,13.92,6.00,10.45,16.62,0.00,0.00,2.97,24.53,0.00,0.00,6.34,14.97,0.00,15.07,2.67,0.00,0.00,0.00,0.00,20.13,8.45,1.96,8.18,20.15,0.00,9.84,2.25,3.27,0.00,0.00,0.11
0,31.32,13.92,6.00,10.30,16.93,0.00,0.00,3.01,23.72,0.00,0.00,6.05,14.72,0.00,12.33,2.66,0.00,0.00,0.00,0.00,19.67,7.04,1.96,7.58,20.24,0.00,9.84,2.30,3.35,0.00,0.00,0.12
0,30.54,13.92,6.00,9.99,17.32,0.00,0.00,3.13,23.40,0.00,0.00,5.91,15.09,0.00,13.70,2.71,0.00,0.00,0.00,0.00,18.83,5.63,1.96,7.34,19.99,0.00,9.84,2.24,3.28,0.00,0.00,0.11
0,30.13,12.66,6.00,8.79,17.64,0.00,0.00,3.16,23.69,0.00,0.00,5.92,15.49,0.00,15.07,2.80,0.00,0.00,0.00,0.00,18.54,5.63,1.96,6.71,20.02,0.00,8.20,2.18,3.12,0.00,0.00,0.10
0,29.89,13.92,6.00,8.67,16.92,0.00,0.00,2.83,23.25,0.00,0.00,5.67,15.46,0.00,16.44,2.71,0.00,0.00,0.00,0.00,17.14,2.82,0.00,5.48,19.77,0.00,8.20,2.16,3.19,0.00,0.00,0.11
0,29.19,13.92,6.00,8.36,17.03,0.00,0.00,2.87,23.45,0.00,0.00,5.61,14.74,0.00,13.70,2.43,0.00,0.00,0.00,0.00,16.28,1.41,0.00,3.91,19.90,0.00,8.20,2.16,3.12,0.00,0.00,0.11
0,29.04,13.92,6.00,8.25,17.13,0.00,0.00,2.85,23.69,0.00,0.00,5.68,14.91,0.00,13.70,2.44,0.00,0.00,0.00,0.00,15.86,1.41,0.00,3.85,19.41,0.00,8.20,2.12,3.19,0.00,0.00,0.11
0,29.59,15.19,6.00,8.51,16.60,0.00,0.00,2.63,23.22,0.00,0.00,5.48,14.80,0.00,13.70,2.39,0.00,0.00,0.00,0.00,15.21,1.41,0.00,3.64,19.10,0.00,8.20,2.05,3.22,0.00,0.00,0.11
0,27.97,12.66,4.00,7.45,16.51,0.00,0.00,2.58,23.07,0.00,0.00,5.41,14.82,0.00,13.70,2.36,0.00,0.00,0.00,0.00,15.21,1.41,0.00,3.63,18.46,0.00,6.56,1.91,3.17,0.00,0.00,0.11
0,28.33,12.66,4.00,7.57,15.51,0.00,0.00,2.29,23.20,0.00,0.00,5.44,14.96,0.00,12.33,2.39,0.00,0.00,0.00,0.00,14.58,0.00,0.00,3.45,18.17,0.00,6.56,1.82,3.20,0.00,0.00,0.12
0,28.66,13.92,4.00,7.77,15.95,0.00,0.00,2.35,23.23,0.00,0.00,5.34,14.57,0.00,12.33,2.25,0.00,0.00,0.00,0.00,13.60,0.00,0.00,2.93,17.70,0.00,6.56,1.73,3.27,0.00,0.00,0.12
0,28.25,12.66,4.00,7.51,15.51,0.00,0.00,2.29,23.08,0.00,0.00,5.14,14.62,0.00,10.96,2.31,0.00,0.00,0.00,0.00,13.78,0.00,0.00,2.95,17.14,0.00,4.92,1.65,3.38,0.00,0.00,0.14
0,28.65,15.19,2.00,7.80,15.00,0.00,0.00,2.15,22.62,0.00,0.00,5.05,14.77,0.00,12.33,2.35,0.00,0.00,0.00,0.00,13.74,0.00,0.00,2.90,16.91,0.00,1.64,1.58,3.40,0.00,0.00,0.14
0,28.22,15.19,2.00,7.15,15.24,0.00,0.00,2.16,22.91,0.00,0.00,5.22,14.99,0.00,12.33,2.38,0.00,0.00,0.00,0.00,13.34,0.00,0.00,2.84,16.91,0.00,1.64,1.55,3.37,0.00,0.00,0.14
0,29.85,18.99,4.00,7.65,15.40,0.00,0.00,2.15,21.68,0.00,0.00,4.73,15.05,0.00,15.07,2.35,0.00,0.00,0.00,0.00,12.72,0.00,0.00,2.48,16.97,0.00,1.64,1.51,3.37,0.00,0.00,0.13
0,28.69,16.46,4.00,7.22,15.74,0.00,0.00,2.25,21.61,0.00,0.00,4.74,14.98,0.00,13.70,2.37,0.00,0.00,0.00,0.00,12.45,0.00,0.00,2.36,17.25,0.00,1.64,1.52,3.35,0.00,0.00,0.13
0,28.59,16.46,4.00,7.15,15.71,0.00,0.00,2.20,22.24,0.00,0.00,4.94,15.25,0.00,15.07,2.42,0.00,0.00,0.00,0.00,12.65,0.00,0.00,2.36,17.14,0.00,1.64,1.50,3.35,0.00,0.00,0.13
0,28.91,17.72,4.00,7.22,15.76,0.00,0.00,2.19,22.19,0.00,0.00,4.92,15.07,0.00,15.07,2.28,0.00,0.00,0.00,0.00,12.44,0.00,0.00,2.38,15.85,0.00,0.00,1.34,3.22,0.00,0.00,0.12
0,29.22,20.25,4.00,7.45,15.71,0.00,0.00,2.20,22.90,0.00,0.00,5.41,15.06,0.00,16.44,2.28,0.00,0.00,0.00,0.00,12.30,0.00,0.00,2.38,16.19,0.00,0.00,1.38,3.27,0.00,0.00,0.12
0,29.91,22.78,4.00,7.55,15.72,0.00,0.00,2.25,22.98,0.00,0.00,5.47,14.88,0.00,17.81,2.20,0.00,0.00,0.00,0.00,12.38,0.00,0.00,2.40,16.65,0.00,0.00,1.40,3.21,0.00,0.00,0.12
0,30.85,25.32,4.00,7.99,15.62,0.00,0.00,2.24,23.65,0.00,0.00,5.80,14.97,0.00,17.81,2.25,0.00,0.00,0.00,0.00,12.79,0.00,0.00,2.49,16.70,0.00,0.00,1.43,3.14,0.00,0.00,0.11
0,30.02,24.05,4.00,7.81,15.57,0.00,0.00,2.17,24.93,0.00,0.00,6.53,15.32,0.00,19.18,2.43,0.00,0.00,0.00,0.00,12.54,0.00,0.00,2.37,17.18,0.00,0.00,1.50,3.14,0.00,0.00,0.11
0,30.78,25.32,4.00,7.93,15.62,0.00,0.00,2.28,26.84,0.00,0.00,7.61,15.37,0.00,20.55,2.46,0.00,0.00,0.00,0.00,12.50,0.00,0.00,2.38,17.81,0.00,1.64,1.56,3.00,0.00,0.00,0.10
0,31.74,26.58,4.00,8.14,15.83,0.00,0.00,2.29,27.44,0.00,0.00,8.19,15.36,0.00,20.55,2.50,0.00,0.00,0.00,0.00,11.54,0.00,0.00,1.96,18.08,0.00,1.64,1.57,3.03,0.00,0.00,0.10
0,31.87,29.11,4.00,8.49,15.67,0.00,0.00,2.22,27.95,0.00,0.00,8.60,14.98,0.00,19.18,2.32,0.00,0.00,0.00,0.00,11.62,0.00,0.00,1.98,17.55,0.00,1.64,1.51,3.06,0.00,0.00,0.10
0,31.51,27.85,4.00,8.38,15.67,0.00,0.00,2.25,29.07,0.00,0.00,9.35,15.12,0.00,16.44,2.48,0.00,0.00,0.00,0.00,11.39,0.00,0.00,1.94,18.26,0.00,3.28,1.63,3.03,0.00,0.00,0.10
0,31.63,27.85,4.00,8.35,15.38,0.00,0.00,2.16,29.12,0.00,0.00,9.70,15.26,0.00,17.81,2.59,0.00,0.00,0.00,0.00,10.90,0.00,0.00,1.83,17.84,0.00,3.28,1.60,2.91,0.00,0.00,0.10
0,32.48,29.11,4.00,8.66,15.20,0.00,0.00,2.18,29.22,0.00,0.00,9.88,15.31,0.00,17.81,2.68,0.00,0.00,0.00,0.00,10.73,0.00,0.00,1.78,18.88,0.00,8.20,1.79,2.93,0.00,0.00,0.10
0,32.08,29.11,6.00,8.80,15.28,0.00,0.00,2.20,30.14,0.00,0.00,10.30,15.80,0.00,19.18,2.76,0.00,0.00,0.00,0.00,10.99,0.00,0.00,1.81,19.12,0.00,8.20,1.83,2.87,0.00,0.00,0.09
0,31.87,29.11,6.00,8.77,15.37,0.00,0.00,2.21,30.38,0.00,0.00,10.30,16.19,0.00,19.18,2.93,0.00,0.00,0.00,0.00,10.81,0.00,0.00,1.79,18.89,0.00,8.20,1.75,2.94,0.00,0.00,0.09
0,31.80,29.11,6.00,8.78,15.18,0.00,0.00,2.18,30.57,0.00,0.00,10.43,16.24,0.00,19.18,2.98,0.00,0.00,0.00,0.00,11.01,0.00,0.00,1.79,19.15,0.00,8.20,1.76,2.83,0.00,0.00,0.08
0,31.46,29.11,6.00,8.75,14.78,0.00,0.00,2.11,31.61,0.00,0.00,11.35,16.33,0.00,19.18,3.07,0.00,0.00,0.00,0.00,10.91,0.00,0.00,1.81,19.38,0.00,8.20,1.79,2.85,0.00,0.00,0.08
0,31.64,27.85,6.00,8.44,14.85,0.00,0.00,2.07,31.77,0.00,0.00,11.52,16.29,0.00,19.18,3.10,0.00,0.00,0.00,0.00,11.00,0.00,0.00,1.84,19.39,0.00,8.20,1.78,2.70,0.00,0.00,0.07
0,31.80,26.58,6.00,8.65,14.61,0.00,0.00,1.99,32.41,0.00,0.00,11.94,16.27,0.00,17.81,3.19,0.00,0.00,0.00,0.00,10.51,0.00,0.00,1.76,19.25,0.00,8.20,1.76,2.68,0.00,0.00,0.07
0,30.43,22.78,4.00,8.15,15.37,0.00,0.00,2.24,32.67,0.00,0.00,12.00,16.62,0.00,20.55,3.36,0.00,0.00,0.00,0.00,10.12,0.00,0.00,1.59,19.85,0.00,11.48,1.87,2.75,0.00,0.00,0.07
0,29.42,22.78,2.00,7.67,14.79,0.00,0.00,2.15,33.65,0.00,0.00,12.89,16.77,0.00,19.18,3.54,0.00,0.00,0.00,0.00,10.04,0.00,0.00,1.58,19.55,0.00,11.48,1.82,2.86,0.00,0.00,0.08
0,29.83,24.05,2.00,7.97,14.32,0.00,0.00,2.11,34.64,0.00,0.00,13.14,16.39,0.00,17.81,3.40,0.00,0.00,0.00,0.00,10.29,0.00,0.00,1.68,19.39,0.00,11.48,1.86,2.92,0.00,0.00,0.08
0,29.94,24.05,2.00,7.93,14.59,0.00,0.00,2.24,34.06,0.00,0.00,13.05,16.17,0.00,16.44,3.46,0.00,0.00,0.00,0.00,10.04,0.00,0.00,1.65,19.35,0.00,11.48,1.87,2.86,0.00,0.00,0.08
0,30.26,24.05,2.00,8.00,14.51,0.00,0.00,2.24,34.02,0.00,0.00,13.13,16.60,0.00,20.55,3.57,0.00,0.00,0.00,0.00,9.49,0.00,0.00,1.46,19.56,0.00,11.48,1.89,2.94,0.00,0.00,0.08
0,30.09,25.32,2.00,7.98,15.05,0.00,0.00,2.37,32.78,0.00,0.00,12.58,16.67,0.00,19.18,3.59,0.00,0.00,0.00,0.00,9.50,0.00,0.00,1.43,19.55,0.00,11.48,1.89,2.97,0.00,0.00,0.08
0,30.29,24.05,2.00,7.96,15.23,0.00,0.00,2.41,33.13,0.00,0.00,12.97,16.88,0.00,19.18,3.68,0.00,0.00,0.00,0.00,9.35,0.00,0.00,1.39,19.44,0.00,11.48,1.90,2.99,0.00,0.00,0.09
0,30.04,22.78,2.00,7.76,15.67,0.00,0.00,2.52,32.81,0.00,0.00,12.81,17.09,0.00,17.81,3.84,0.00,0.00,0.00,0.00,9.19,0.00,0.00,1.35,19.71,0.00,11.48,1.96,3.02,0.00,0.00,0.09
0,30.80,22.78,2.00,7.97,16.11,0.00,0.00,2.78,32.65,0.00,0.00,12.83,16.85,0.00,17.81,3.79,0.00,0.00,0.00,0.00,8.94,0.00,0.00,1.33,19.45,0.00,11.48,1.90,3.07,0.00,0.00,0.09
0,30.27,21.52,2.00,7.78,16.04,0.00,0.00,2.75,31.97,0.00,0.00,12.19,17.22,0.00,17.81,3.92,0.00,0.00,0.00,0.00,9.07,0.00,0.00,1.35,18.08,0.00,9.84,1.71,3.11,0.00,0.00,0.10
0,31.25,22.78,2.00,8.07,16.10,0.00,0.00,2.77,32.68,2.56,0.00,13.00,17.95,0.00,17.81,4.38,0.00,0.00,0.00,0.00,9.22,0.00,0.00,1.37,17.85,0.00,9.84,1.70,3.13,0.00,0.00,0.10
0,32.17,21.52,4.00,9.60,15.68,0.00,0.00,2.75,32.30,2.56,0.00,12.69,18.15,0.00,17.81,4.50,0.00,0.00,0.00,0.00,9.00,0.00,0.00,1.28,18.44,0.00,9.84,1.81,3.16,0.00,0.00,0.10
0,33.21,24.05,4.00,10.32,16.32,0.00,0.00,2.89,32.01,2.56,0.00,12.51,18.50,0.00,17.81,4.59,0.00,0.00,0.00,0.00,8.81,0.00,0.00,1.28,18.49,0.00,9.84,1.84,3.21,0.00,0.00,0.10
0,34.69,27.85,4.00,10.94,16.73,0.00,0.00,3.05,32.50,2.56,0.00,12.50,18.43,0.00,17.81,4.64,0.00,0.00,0.00,0.00,8.94,0.00,0.00,1.25,18.72,0.00,9.84,1.85,3.23,0.00,0.00,0.10
0,34.52,26.58,4.00,10.88,16.59,0.00,0.00,3.06,32.96,2.56,0.00,12.80,18.27,0.00,17.81,4.55,0.00,0.00,0.00,0.00,9.07,0.00,0.00,1.26,18.08,0.00,4.92,1.70,3.28,0.00,0.00,0.11
0,34.29,26.58,2.00,10.57,16.15,0.00,0.00,2.94,32.59,2.56,0.00,12.58,18.05,0.00,16.44,4.53,0.00,0.00,0.00,0.00,8.95,0.00,0.00,1.25,18.44,0.00,4.92,1.73,3.27,0.00,0.00,0.11
0,35.85,30.38,2.00,11.07,16.48,0.00,0.00,3.09,32.90,2.56,0.00,12.94,18.11,0.00,16.44,4.46,0.00,0.00,0.00,0.00,8.70,0.00,0.00,1.14,18.73,0.00,4.92,1.83,3.26,0.00,0.00,0.11
0,35.55,30.38,2.00,10.99,17.13,0.00,0.00,3.23,33.90,2.56,0.00,13.52,18.37,0.00,17.81,4.51,0.00,0.00,0.00,0.00,8.82,0.00,0.00,1.27,18.99,0.00,4.92,1.87,3.30,0.00,0.00,0.11
0,36.69,31.65,2.00,11.31,17.38,0.00,0.00,3.30,32.56,2.56,0.00,12.49,18.22,0.00,17.81,4.40,0.00,0.00,0.00,0.00,8.90,0.00,0.00,1.28,18.68,0.00,4.92,1.84,3.26,0.00,0.00,0.11
0,36.36,31.65,2.00,11.28,17.42,0.00,0.00,3.33,32.45,2.56,0.00,12.49,17.81,0.00,16.44,4.27,0.00,0.00,0.00,0.00,8.91,0.00,0.00,1.28,18.47,0.00,4.92,1.86,3.27,0.00,0.00,0.11
0,35.75,31.65,2.00,11.18,17.55,0.00,0.00,3.37,32.65,2.56,0.00,12.48,17.84,0.00,17.81,4.19,0.00,0.00,0.00,0.00,9.37,0.00,0.00,1.32,18.06,0.00,4.92,1.83,3.27,0.00,0.00,0.11
0,36.44,32.91,2.00,11.14,16.52,0.00,0.00,3.07,32.50,2.56,0.00,12.35,17.45,0.00,16.44,4.03,0.00,0.00,0.00,0.00,9.56,0.00,0.00,1.35,17.65,0.00,3.28,1.75,3.24,0.00,0.00,0.11
0,36.49,31.65,2.00,11.22,16.45,0.00,0.00,3.04,33.36,5.13,0.00,12.91,17.41,0.00,16.44,3.90,0.00,0.00,0.00,0.00,9.71,0.00,0.00,1.41,18.09,0.00,3.28,1.77,3.19,0.00,0.00,0.11
0,36.27,30.38,2.00,11.09,16.58,0.00,0.00,3.03,34.09,5.13,0.00,13.74,17.83,0.00,17.81,4.06,0.00,0.00,0.00,0.00,9.57,0.00,0.00,1.37,18.15,0.00,3.28,1.78,3.18,0.00,0.00,0.11
0,35.77,29.11,2.00,10.90,16.20,0.00,0.00,2.86,34.96,5.13,0.00,14.43,18.80,0.00,20.55,4.41,0.00,0.00,0.00,0.00,9.35,0.00,0.00,1.27,18.02,0.00,3.28,1.73,3.25,0.00,0.00,0.11
0,36.07,27.85,2.00,11.15,16.30,0.00,0.00,2.88,35.70,5.13,0.00,15.19,18.14,0.00,16.44,4.32,0.00,0.00,0.00,0.00,9.61,0.00,0.00,1.32,18.47,0.00,3.28,1.76,3.31,0.00,0.00,0.12
0,37.64,31.65,2.00,11.99,16.43,0.00,0.00,2.85,35.40,5.13,0.00,14.83,18.10,0.00,16.44,4.28,0.00,0.00,0.00,0.00,9.86,0.00,0.00,1.35,18.28,0.00,4.92,1.77,3.30,0.00,0.00,0.12
0,36.90,29.11,2.00,11.67,16.61,0.00,0.00,2.88,35.59,5.13,0.00,14.79,17.83,0.00,15.07,4.21,0.00,0.00,0.00,0.00,10.08,0.00,0.00,1.43,18.41,0.00,4.92,1.76,3.29,0.00,0.00,0.12
0,36.83,27.85,4.00,12.17,16.07,0.00,0.00,2.77,35.31,5.13,0.00,14.47,18.03,0.00,16.44,4.10,0.00,0.00,0.00,0.00,10.07,0.00,0.00,1.44,18.33,0.00,4.92,1.70,3.32,0.00,0.00,0.12
0,36.30,27.85,4.00,12.03,15.96,0.00,0.00,2.54,34.63,5.13,0.00,14.06,18.44,0.00,17.81,4.32,0.00,0.00,0.00,0.00,9.98,0.00,0.00,1.38,18.49,0.00,4.92,1.71,3.33,0.00,0.00,0.13
0,36.64,29.11,4.00,12.33,16.36,0.00,0.00,2.54,35.01,5.13,0.00,14.32,18.39,0.00,17.81,4.19,0.00,0.00,0.00,0.00,9.86,0.00,0.00,1.37,19.61,0.00,6.56,1.92,3.30,0.00,0.00,0.13
0,36.60,29.11,4.00,12.46,16.37,0.00,0.00,2.54,33.94,2.56,0.00,13.36,17.16,0.00,16.44,3.61,0.00,0.00,0.00,0.00,9.99,0.00,0.00,1.40,19.50,0.00,6.56,1.89,3.32,0.00,0.00,0.13
0,35.42,27.85,4.00,11.99,16.38,0.00,0.00,2.59,33.26,2.56,0.00,13.31,17.05,0.00,16.44,3.57,0.00,0.00,0.00,0.00,10.41,0.00,0.00,1.61,18.86,0.00,6.56,1.80,3.39,0.00,0.00,0.14
0,33.18,26.58,2.00,9.55,16.36,0.00,0.00,2.56,32.59,2.56,0.00,12.80,16.92,0.00,17.81,3.42,0.00,0.00,0.00,0.00,10.72,0.00,0.00,1.67,18.23,0.00,4.92,1.67,3.36,0.00,0.00,0.13
0,31.92,24.05,2.00,9.04,15.30,0.00,0.00,2.21,32.57,2.56,0.00,12.85,17.30,0.00,19.18,3.54,0.00,0.00,0.00,0.00,10.91,0.00,0.00,1.69,18.37,0.00,4.92,1.69,3.40,0.00,0.00,0.14
0,31.33,22.78,2.00,8.87,15.30,0.00,0.00,2.17,33.03,5.13,0.00,13.91,18.46,0.00,20.55,4.19,0.00,0.00,0.00,0.00,11.06,0.00,0.00,1.70,18.21,0.00,4.92,1.67,3.43,0.00,0.00,0.14
0,31.61,21.52,2.00,8.91,15.34,0.00,0.00,2.16,33.87,5.13,0.00,14.27,18.59,0.00,20.55,4.24,0.00,0.00,0.00,0.00,11.48,0.00,0.00,1.83,18.46,0.00,4.92,1.69,3.40,0.00,0.00,0.14
0,30.51,17.72,2.00,8.65,15.27,0.00,0.00,2.10,33.28,5.13,0.00,14.22,18.48,0.00,20.55,4.27,0.00,0.00,0.00,0.00,11.59,0.00,0.00,1.85,17.94,0.00,4.92,1.61,3.49,0.00,0.00,0.14
0,30.79,17.72,2.00,8.59,15.20,0.00,0.00,1.97,32.50,5.13,0.00,13.60,18.05,0.00,19.18,4.17,0.00,0.00,0.00,0.00,11.29,0.00,0.00,1.74,17.87,0.00,4.92,1.58,3.55,0.00,0.00,0.15
0,30.95,18.99,2.00,8.87,15.21,0.00,0.00,1.97,32.62,5.13,0.00,14.00,18.12,0.00,19.18,4.23,0.00,0.00,0.00,0.00,11.05,0.00,0.00,1.65,17.63,0.00,4.92,1.57,3.66,0.00,0.00,0.15
0,30.61,18.99,2.00,8.73,15.43,0.00,0.00,2.06,32.98,5.13,0.00,14.22,18.45,0.00,19.18,4.39,0.00,0.00,0.00,0.00,10.82,0.00,0.00,1.60,17.43,0.00,4.92,1.54,3.65,0.00,0.00,0.15
0,30.56,20.25,2.00,8.62,15.45,0.00,0.00,2.08,32.61,5.13,0.00,13.88,18.25,0.00,17.81,4.33,0.00,0.00,0.00,0.00,10.64,0.00,0.00,1.59,17.50,0.00,4.92,1.54,3.70,0.00,0.00,0.16
0,30.54,20.25,2.00,8.45,15.79,0.00,0.00,2.18,33.27,5.13,0.00,14.41,18.10,0.00,16.44,4.23,0.00,0.00,0.00,0.00,10.29,0.00,0.00,1.54,17.09,0.00,3.28,1.50,3.70,0.00,0.00,0.15
0,30.79,21.52,2.00,8.51,16.10,0.00,0.00,2.21,32.00,2.56,0.00,13.18,17.68,0.00,15.07,4.11,0.00,0.00,0.00,0.00,10.43,0.00,0.00,1.57,17.22,0.00,3.28,1.52,3.70,0.00,0.00,0.16
0,29.92,20.25,2.00,8.40,16.66,0.00,0.00,2.38,31.19,2.56,0.00,12.38,17.42,0.00,15.07,4.00,0.00,0.00,0.00,0.00,10.19,0.00,0.00,1.51,17.04,0.00,3.28,1.51,3.73,0.00,0.00,0.16
0,30.26,21.52,2.00,8.38,17.03,0.00,0.00,2.52,30.77,2.56,0.00,11.89,16.42,0.00,12.33,3.60,0.00,0.00,0.00,0.00,10.64,0.00,0.00,1.58,17.43,0.00,3.28,1.57,3.66,0.00,0.00,0.15
0,29.69,21.52,2.00,8.02,17.14,0.00,0.00,2.56,30.09,2.56,0.00,11.52,16.74,0.00,12.33,3.76,0.00,0.00,0.00,0.00,10.74,0.00,0.00,1.62,17.08,0.00,3.28,1.53,3.56,0.00,0.00,0.14
0,28.03,17.72,2.00,7.54,16.77,0.00,0.00,2.52,29.84,2.56,0.00,11.73,16.76,0.00,13.70,3.70,0.00,0.00,0.00,0.00,10.55,0.00,0.00,1.57,17.31,0.00,1.64,1.50,3.61,0.00,0.00,0.14
0,27.36,16.46,2.00,7.33,16.19,0.00,0.00,2.39,30.90,2.56,0.00,12.29,16.92,0.00,15.07,3.96,0.00,0.00,0.00,0.00,10.22,0.00,0.00,1.47,17.36,0.00,1.64,1.50,3.51,0.00,0.00,0.14
0,28.07,18.99,2.00,7.74,16.49,0.00,0.00,2.51,30.88,2.56,0.00,12.38,17.26,0.00,15.07,4.11,0.00,0.00,0.00,0.00,10.36,0.00,0.00,1.47,17.40,0.00,1.64,1.54,3.54,0.00,0.00,0.14
0,27.18,17.72,0.00,6.92,16.37,0.00,0.00,2.50,31.52,2.56,0.00,12.81,16.95,0.00,13.70,3.97,0.00,0.00,0.00,0.00,10.64,0.00,0.00,1.59,16.62,0.00,1.64,1.46,3.68,0.00,0.00,0.14
0,26.97,17.72,0.00,6.83,15.57,0.00,0.00,2.40,31.18,2.56,0.00,12.29,16.73,0.00,12.33,3.92,0.00,0.00,0.00,0.00,10.72,0.00,0.00,1.65,16.13,0.00,1.64,1.31,3.70,0.00,0.00,0.15
0,26.54,17.72,0.00,6.56,14.97,0.00,0.00,2.28,31.67,5.13,0.00,13.33,17.14,0.00,13.70,4.13,0.00,0.00,0.00,0.00,10.81,0.00,0.00,1.68,16.18,0.00,1.64,1.33,3.67,0.00,0.00,0.14
0,26.78,17.72,0.00,6.44,15.32,0.00,0.00,2.27,33.10,5.13,0.00,14.21,17.49,0.00,15.07,4.16,0.00,0.00,0.00,0.00,10.73,0.00,0.00,1.53,16.32,0.00,1.64,1.33,3.62,0.00,0.00,0.13
0,28.26,20.25,2.00,7.05,15.99,0.00,0.00,2.56,33.59,5.13,0.00,14.68,17.49,0.00,15.07,4.12,0.00,0.00,0.00,0.00,10.68,0.00,0.00,1.50,16.30,0.00,1.64,1.33,3.59,0.00,0.00,0.13
0,28.28,18.99,2.00,7.04,16.02,0.00,0.00,2.55,34.88,5.13,0.00,15.11,16.53,0.00,12.33,3.83,0.00,0.00,0.00,0.00,10.45,0.00,0.00,1.46,16.18,0.00,1.64,1.29,3.61,0.00,0.00,0.13
0,29.30,18.99,2.00,7.25,16.29,0.00,0.00,2.65,33.34,2.56,0.00,14.00,15.32,0.00,10.96,3.26,0.00,0.00,0.00,0.00,10.54,0.00,0.00,1.52,16.64,0.00,1.64,1.45,3.51,0.00,0.00,0.13
0,28.74,17.72,2.00,6.92,16.09,0.00,0.00,2.63,32.62,2.56,0.00,13.59,15.30,0.00,10.96,3.12,0.00,0.00,0.00,0.00,10.28,0.00,0.00,1.48,16.32,0.00,1.64,1.44,3.47,0.00,0.00,0.13
0,28.20,17.72,2.00,6.72,16.19,0.00,0.00,2.66,32.14,2.56,0.00,13.29,15.00,0.00,10.96,3.07,0.00,0.00,0.00,0.00,10.00,0.00,0.00,1.37,16.38,0.00,1.64,1.42,3.51,0.00,0.00,0.13
0,28.72,17.72,2.00,6.72,15.81,0.00,0.00,2.64,32.79,2.56,0.00,13.50,15.25,0.00,12.33,3.10,0.00,0.00,0.00,0.00,10.32,0.00,0.00,1.42,16.83,0.00,1.64,1.48,3.41,0.00,0.00,0.12
0,28.07,17.72,2.00,6.64,15.64,0.00,0.00,2.68,32.37,2.56,0.00,13.08,15.18,0.00,12.33,3.05,0.00,0.00,0.00,0.00,10.51,0.00,0.00,1.50,17.51,0.00,1.64,1.55,3.31,0.00,0.00,0.11
0,28.91,18.99,2.00,7.02,15.12,0.00,0.00,2.52,32.41,2.56,0.00,12.95,15.13,0.00,12.33,2.98,0.00,0.00,0.00,0.00,10.51,0.00,0.00,1.50,17.61,0.00,1.64,1.52,3.37,0.00,0.00,0.11
0,29.49,20.25,2.00,7.32,14.94,0.00,0.00,2.47,32.36,2.56,0.00,12.96,15.03,0.00,12.33,2.98,0.00,0.00,0.00,0.00,10.54,0.00,0.00,1.50,17.70,0.00,1.64,1.51,3.28,0.00,0.00,0.11
0,28.91,18.99,2.00,7.53,15.20,0.00,0.00,2.47,32.06,2.56,0.00,12.86,15.47,0.00,15.07,3.16,0.00,0.00,0.00,0.00,10.87,0.00,0.00,1.52,18.02,0.00,4.92,1.53,3.28,0.00,0.00,0.11
0,28.98,18.99,2.00,7.48,14.91,0.00,0.00,2.42,32.47,2.56,0.00,13.14,15.84,0.00,17.81,3.19,0.00,0.00,0.00,0.00,10.91,0.00,0.00,1.57,17.85,0.00,4.92,1.48,3.24,0.00,0.00,0.10
0,28.43,16.46,2.00,7.21,15.40,0.00,0.00,2.52,32.23,2.56,0.00,12.93,15.92,0.00,16.44,3.19,0.00,0.00,0.00,0.00,11.31,0.00,0.00,1.69,18.51,0.00,8.20,1.59,3.20,0.00,0.00,0.10
0,29.96,18.99,4.00,7.66,14.73,0.00,0.00,2.25,31.18,2.56,0.00,12.36,16.03,0.00,16.44,3.18,0.00,0.00,0.00,0.00,11.35,0.00,0.00,1.73,17.72,0.00,8.20,1.55,3.20,0.00,0.00,0.10
0,29.97,18.99,4.00,7.78,15.08,0.00,0.00,2.28,31.53,2.56,0.00,12.35,16.14,0.00,17.81,3.20,0.00,0.00,0.00,0.00,11.44,0.00,0.00,1.72,17.84,0.00,8.20,1.51,3.17,0.00,0.00,0.10
0,29.74,18.99,4.00,7.67,14.90,0.00,0.00,2.27,30.96,2.56,0.00,12.07,15.95,0.00,16.44,3.18,0.00,0.00,0.00,0.00,11.34,0.00,0.00,1.71,17.81,0.00,8.20,1.57,3.16,0.00,0.00,0.10
0,30.53,20.25,4.00,8.01,14.59,0.00,0.00,2.21,30.43,2.56,0.00,11.69,15.72,0.00,15.07,3.05,0.00,0.00,0.00,0.00,11.98,0.00,0.00,1.89,17.24,0.00,8.20,1.53,3.15,0.00,0.00,0.10
0,30.06,18.99,4.00,7.68,14.61,0.00,0.00,2.16,29.41,2.56,0.00,11.01,15.79,0.00,13.70,3.02,0.00,0.00,0.00,0.00,11.95,0.00,0.00,1.98,16.84,0.00,8.20,1.47,3.12,0.00,0.00,0.10
0,30.13,18.99,4.00,7.65,14.62,0.00,0.00,2.09,28.58,2.56,0.00,10.52,15.31,0.00,12.33,2.82,0.00,0.00,0.00,0.00,11.82,0.00,0.00,1.90,16.71,0.00,8.20,1.46,2.90,0.00,0.00,0.09
0,30.56,18.99,4.00,7.74,14.97,0.00,0.00,2.18,28.58,2.56,0.00,10.80,15.50,0.00,12.33,2.93,0.00,0.00,0.00,0.00,11.80,0.00,0.00,1.85,16.33,0.00,6.56,1.41,2.85,0.00,0.00,0.08
0,30.77,20.25,4.00,7.95,15.31,0.00,0.00,2.26,27.68,0.00,0.00,9.79,15.46,0.00,10.96,2.89,0.00,0.00,0.00,0.00,11.59,0.00,0.00,1.80,16.53,0.00,6.56,1.44,2.78,0.00,0.00,0.08
0,30.76,20.25,4.00,7.98,15.04,0.00,0.00,2.24,27.58,0.00,0.00,9.60,15.37,0.00,9.59,2.84,0.00,0.00,0.00,0.00,11.56,0.00,0.00,1.83,16.75,0.00,6.56,1.45,2.81,0.00,0.00,0.08
0,30.04,16.46,2.00,7.53,14.85,0.00,0.00,2.12,26.39,0.00,0.00,8.45,14.92,0.00,8.22,2.68,0.00,0.00,0.00,0.00,11.51,0.00,0.00,1.80,17.33,0.00,6.56,1.64,2.74,0.00,0.00,0.08
0,29.45,15.19,2.00,7.30,15.02,0.00,0.00,2.14,25.92,0.00,0.00,8.37,15.20,0.00,8.22,2.73,0.00,0.00,0.00,0.00,11.21,0.00,0.00,1.76,17.35,0.00,6.56,1.67,2.67,0.00,0.00,0.08
0,28.88,15.19,2.00,7.15,14.45,0.00,0.00,1.98,25.96,0.00,0.00,8.31,15.16,0.00,8.22,2.70,0.00,0.00,0.00,0.00,11.08,0.00,0.00,1.70,17.17,0.00,6.56,1.56,2.71,0.00,0.00,0.08
0,28.29,15.19,2.00,6.93,14.68,0.00,0.00,2.01,26.84,0.00,0.00,8.60,15.20,0.00,8.22,2.77,0.00,0.00,0.00,0.00,10.99,0.00,0.00,1.67,17.20,0.00,6.56,1.53,2.72,0.00,0.00,0.08
0,29.48,17.72,2.00,7.36,15.11,0.00,0.00,2.03,26.95,0.00,0.00,8.83,15.26,0.00,8.22,2.77,0.00,0.00,0.00,0.00,11.46,0.00,0.00,1.83,16.67,0.00,6.56,1.47,2.76,0.00,0.00,0.08
0,30.56,21.52,2.00,7.86,15.25,0.00,0.00,2.05,27.19,0.00,0.00,8.97,15.31,0.00,6.85,2.74,0.00,0.00,0.00,0.00,11.62,0.00,0.00,1.91,16.31,0.00,6.56,1.42,2.79,0.00,0.00,0.08
0,31.18,22.78,4.00,8.30,15.28,0.00,0.00,1.97,27.57,0.00,0.00,8.95,15.33,0.00,6.85,2.75,0.00,0.00,0.00,0.00,11.64,0.00,0.00,1.92,16.05,0.00,6.56,1.39,2.78,0.00,0.00,0.08
0,30.73,20.25,4.00,7.81,15.77,0.00,0.00,2.04,27.22,0.00,0.00,8.90,15.28,0.00,6.85,2.73,0.00,0.00,0.00,0.00,11.74,0.00,0.00,1.95,15.73,0.00,6.56,1.38,2.74,0.00,0.00,0.08
0,29.37,18.99,4.00,7.54,16.53,0.00,0.00,2.22,27.46,0.00,0.00,8.84,15.21,0.00,6.85,2.81,0.00,0.00,0.00,0.00,11.90,0.00,0.00,2.01,15.81,0.00,6.56,1.40,2.78,0.00,0.00,0.09
0,28.73,17.72,4.00,6.97,16.09,0.00,0.00,2.19,27.20,0.00,0.00,8.36,14.99,0.00,5.48,2.78,0.00,0.00,0.00,0.00,11.80,0.00,0.00,2.01,15.57,0.00,3.28,1.36,2.78,0.00,0.00,0.09
0,29.09,17.72,4.00,6.98,15.71,0.00,0.00,2.13,26.42,0.00,0.00,8.14,14.71,0.00,2.74,2.72,0.00,0.00,0.00,0.00,11.59,0.00,0.00,1.96,15.41,0.00,3.28,1.35,2.77,0.00,0.00,0.09
0,29.38,18.99,4.00,7.13,15.31,0.00,0.00,2.11,26.77,0.00,0.00,8.34,15.02,0.00,5.48,2.79,0.00,0.00,0.00,0.00,11.39,0.00,0.00,1.88,14.81,0.00,0.00,1.23,2.93,0.00,0.00,0.10
0,29.57,18.99,4.00,7.18,15.04,0.00,0.00,2.10,27.95,0.00,0.00,9.09,14.93,0.00,5.48,2.84,0.00,0.00,0.00,0.00,11.10,0.00,0.00,1.83,15.31,0.00,0.00,1.28,2.93,0.00,0.00,0.10
0,28.92,16.46,2.00,7.11,14.66,0.00,0.00,2.11,28.15,0.00,0.00,9.34,14.97,0.00,5.48,2.84,0.00,0.00,0.00,0.00,10.80,0.00,0.00,1.73,15.31,0.00,0.00,1.32,2.98,0.00,0.00,0.11
0,28.30,16.46,2.00,6.88,14.64,0.00,0.00,2.12,28.68,0.00,0.00,9.67,15.02,0.00,5.48,2.94,0.00,0.00,0.00,0.00,10.80,0.00,0.00,1.73,15.27,0.00,0.00,1.28,3.04,0.00,0.00,0.11
0,28.84,15.19,2.00,6.97,14.93,0.00,0.00,2.15,29.44,0.00,0.00,10.25,15.12,0.00,6.85,3.04,0.00,0.00,0.00,0.00,10.59,0.00,0.00,1.68,15.53,0.00,0.00,1.30,3.03,0.00,0.00,0.11
0,28.88,13.92,2.00,6.97,15.42,0.00,0.00,2.31,29.85,0.00,0.00,10.70,15.08,0.00,8.22,3.04,0.00,0.00,0.00,0.00,10.57,0.00,0.00,1.61,15.85,0.00,0.00,1.33,3.05,0.00,0.00,0.11
1,28.93,15.19,2.00,7.11,15.24,0.00,0.00,2.34,30.40,0.00,0.00,11.04,14.95,0.00,8.22,3.13,0.00,0.00,0.00,0.00,10.29,0.00,0.00,1.52,16.07,0.00,0.00,1.35,3.15,0.00,0.00,0.12
1,27.80,13.92,2.00,6.77,14.91,0.00,0.00,2.28,30.62,0.00,0.00,10.99,15.54,0.00,9.59,3.31,0.00,0.00,0.00,0.00,10.28,0.00,0.00,1.54,16.08,0.00,0.00,1.36,3.10,0.00,0.00,0.11
1,27.15,12.66,2.00,6.60,14.71,0.00,0.00,2.19,31.49,0.00,0.00,11.23,15.56,0.00,9.59,3.25,0.00,0.00,0.00,0.00,10.22,0.00,0.00,1.57,15.75,0.00,0.00,1.30,3.09,0.00,0.00,0.11
1,28.48,15.19,4.00,7.00,15.66,0.00,0.00,2.72,30.89,0.00,0.00,10.92,15.48,0.00,10.96,3.26,0.00,0.00,0.00,0.00,11.25,1.41,0.00,2.24,16.33,0.00,0.00,1.46,3.12,0.00,0.00,0.11
1,29.50,17.72,4.00,7.78,15.17,0.00,0.00,2.62,31.57,0.00,0.00,11.19,15.52,0.00,10.96,3.25,0.00,0.00,0.00,0.00,11.73,1.41,0.00,2.56,15.59,0.00,0.00,1.30,3.22,0.00,0.00,0.12
1,30.89,20.25,4.00,8.70,15.17,0.00,0.00,2.67,31.08,0.00,0.00,10.79,15.62,0.00,10.96,3.25,0.00,0.00,0.00,0.00,12.84,1.41,0.00,2.93,15.87,0.00,0.00,1.30,3.41,0.00,0.00,0.13
1,33.29,24.05,6.00,11.28,15.91,0.00,0.00,2.82,32.15,2.56,0.00,11.51,16.35,0.00,12.33,3.54,0.00,0.00,0.00,0.00,13.97,4.23,0.00,3.72,16.46,0.00,0.00,1.52,3.83,0.00,0.00,0.18
1,38.01,27.85,12.00,17.48,16.43,0.00,0.00,3.00,32.16,2.56,0.00,11.35,16.44,0.00,12.33,3.58,0.00,0.00,0.00,0.00,14.47,4.23,0.00,3.84,17.19,0.00,0.00,1.67,4.11,0.00,0.00,0.21
1,41.98,31.65,18.00,20.40,17.06,0.00,0.00,3.55,33.41,5.13,0.00,12.06,16.43,0.00,12.33,3.69,0.00,0.00,0.00,0.00,15.74,7.04,0.00,5.00,18.00,0.00,1.64,1.80,4.25,0.00,0.00,0.24
1,41.83,27.85,20.00,21.63,16.85,0.00,0.00,3.48,33.24,5.13,0.00,11.98,16.39,0.00,12.33,3.74,0.00,0.00,0.00,0.00,16.66,9.86,0.00,5.58,17.92,0.00,1.64,1.80,4.23,0.00,0.00,0.24
1,43.70,29.11,22.00,22.92,17.10,0.00,0.00,3.54,32.94,5.13,0.00,12.55,16.96,0.00,15.07,4.08,0.00,0.00,0.00,0.00,17.11,9.86,0.00,5.95,18.23,0.00,1.64,1.86,4.28,0.00,0.00,0.24
1,46.62,35.44,26.00,24.53,16.75,0.00,0.00,3.53,34.17,5.13,0.00,13.24,17.73,0.00,16.44,4.42,0.00,0.00,0.00,0.00,17.89,11.27,0.00,6.57,18.82,0.00,3.28,1.95,4.55,0.00,0.00,0.25
1,48.78,37.97,28.00,26.14,16.84,0.00,0.00,3.60,33.89,5.13,0.00,13.16,18.39,0.00,17.81,4.59,0.00,0.00,0.00,0.00,18.01,11.27,0.00,6.57,18.78,0.00,3.28,1.94,4.60,0.00,0.00,0.26
1,50.04,40.51,28.00,26.93,17.40,0.00,0.00,3.75,34.39,5.13,0.00,13.42,18.11,0.00,16.44,4.41,0.00,0.00,0.00,0.00,18.46,11.27,0.00,6.80,19.65,0.00,4.92,2.13,4.65,0.00,0.00,0.26
1,51.29,43.04,28.00,28.12,17.82,0.00,0.00,3.80,34.66,5.13,0.00,13.64,18.86,0.00,17.81,4.61,0.00,0.00,0.00,0.00,19.12,11.27,0.00,6.99,20.37,0.00,4.92,2.27,4.79,0.00,0.00,0.28
1,54.65,48.10,32.00,30.27,17.43,0.00,0.00,3.70,35.90,7.69,0.00,14.74,18.94,0.00,16.44,4.67,0.00,0.00,0.00,0.00,19.45,11.27,0.00,7.07,21.16,0.00,8.20,2.34,4.64,0.00,0.00,0.26
1,55.99,53.16,34.00,31.32,17.53,0.00,0.00,3.66,37.23,10.26,0.00,15.76,19.70,0.00,19.18,5.01,0.00,0.00,0.00,0.00,20.14,11.27,0.00,7.34,21.56,0.00,8.20,2.33,4.58,0.00,0.00,0.26
1,57.71,55.70,34.00,31.85,17.96,0.00,0.00,3.68,37.68,12.82,0.00,17.11,19.98,0.00,19.18,5.16,0.00,0.00,0.00,0.00,20.57,11.27,0.00,7.50,22.23,0.00,11.48,2.46,4.47,0.00,0.00,0.25
1,58.39,56.96,34.00,31.98,18.05,0.00,0.00,3.66,38.41,12.82,0.00,17.88,20.22,0.00,20.55,5.11,0.00,0.00,0.00,0.00,20.59,11.27,0.00,7.51,22.68,0.00,11.48,2.55,4.41,0.00,0.00,0.25
1,60.17,62.03,36.00,33.28,18.18,0.00,0.00,3.69,37.76,12.82,0.00,17.11,19.81,0.00,19.18,4.87,0.00,0.00,0.00,0.00,20.85,11.27,0.00,7.58,23.03,0.00,11.48,2.59,4.45,0.00,0.00,0.25
1,60.95,64.56,36.00,33.99,17.23,0.00,0.00,3.52,37.59,12.82,0.00,16.90,19.37,0.00,17.81,4.73,0.00,0.00,0.00,0.00,21.27,11.27,0.00,7.70,23.11,0.00,11.48,2.61,4.49,0.00,0.00,0.26
1,61.41,64.56,36.00,34.18,17.13,0.00,0.00,3.46,36.15,12.82,0.00,16.19,19.34,0.00,20.55,4.60,0.00,0.00,0.00,0.00,21.40,11.27,0.00,7.75,22.84,0.00,11.48,2.56,4.38,0.00,0.00,0.25
1,62.95,65.82,36.00,34.76,17.56,0.00,0.00,3.58,35.37,12.82,0.00,15.79,18.77,0.00,20.55,4.26,0.00,0.00,0.00,0.00,21.65,11.27,0.00,7.79,24.31,0.00,14.75,2.89,4.47,0.00,0.00,0.26
1,67.54,70.89,42.00,38.29,17.98,0.00,0.00,3.66,34.83,12.82,0.00,15.36,18.42,0.00,21.92,4.18,0.00,0.00,0.00,0.00,21.77,11.27,0.00,7.81,24.53,0.00,14.75,2.94,4.62,0.00,0.00,0.27
1,70.28,73.42,46.00,41.12,17.49,0.00,0.00,3.22,35.09,12.82,0.00,15.38,18.81,0.00,23.29,4.30,0.00,0.00,0.00,0.00,21.27,9.86,0.00,7.30,24.92,0.00,16.39,3.03,4.72,0.00,0.00,0.28
1,69.48,72.15,44.00,40.30,18.09,0.00,0.00,3.23,34.47,12.82,0.00,15.26,18.83,0.00,24.66,4.32,0.00,0.00,0.00,0.00,20.93,9.86,0.00,7.11,24.75,0.00,16.39,3.01,4.70,0.00,0.00,0.28
1,70.38,69.62,46.00,41.61,18.36,0.00,0.00,3.32,34.99,12.82,0.00,15.22,19.25,0.00,27.40,4.37,0.00,0.00,0.00,0.00,20.00,9.86,0.00,6.65,24.75,0.00,16.39,3.01,4.76,0.00,0.00,0.28
1,70.36,69.62,46.00,41.94,17.51,0.00,0.00,3.06,34.61,10.26,0.00,15.03,18.95,0.00,28.77,4.17,0.00,0.00,0.00,0.00,19.23,7.04,0.00,6.10,24.45,0.00,16.39,2.84,4.57,0.00,0.00,0.24
1,68.41,70.89,42.00,38.39,16.77,0.00,0.00,2.85,33.44,10.26,0.00,14.10,18.83,0.00,28.77,4.09,0.00,0.00,0.00,0.00,18.81,7.04,0.00,5.83,24.20,0.00,16.39,2.78,4.34,0.00,0.00,0.22
1,68.47,72.15,46.00,38.10,15.90,0.00,0.00,2.36,31.53,7.69,0.00,13.20,18.83,0.00,31.51,4.07,0.00,0.00,0.00,0.00,17.69,4.23,0.00,4.84,23.68,0.00,14.75,2.67,4.10,0.00,0.00,0.18
1,66.94,69.62,44.00,35.67,16.26,0.00,0.00,2.34,30.88,7.69,0.00,12.77,18.91,0.00,32.88,3.94,0.00,0.00,0.00,0.00,16.67,1.41,0.00,4.19,23.83,0.00,14.75,2.69,4.13,0.00,0.00,0.18
1,65.07,68.35,40.00,34.13,16.48,0.00,0.00,2.40,30.62,7.69,0.00,12.41,18.37,0.00,30.14,3.72,0.00,0.00,0.00,0.00,16.76,1.41,0.00,4.07,24.13,0.00,16.39,2.74,4.06,0.00,0.00,0.18
1,65.14,70.89,38.00,33.72,16.48,0.00,0.00,2.37,29.96,7.69,0.00,11.82,18.04,0.00,28.77,3.55,0.00,0.00,0.00,0.00,15.86,0.00,0.00,3.32,23.82,0.00,14.75,2.67,4.02,0.00,0.00,0.18
1,65.75,72.15,38.00,33.50,16.39,0.00,0.00,2.36,29.42,7.69,0.00,11.54,17.57,0.00,28.77,3.25,0.00,0.00,0.00,0.00,15.75,0.00,0.00,3.26,24.25,0.00,14.75,2.79,3.77,0.00,0.00,0.16
1,66.94,73.42,40.00,34.38,16.25,0.00,0.00,2.34,29.29,7.69,0.00,11.40,17.50,0.00,28.77,3.28,0.00,0.00,0.00,0.00,15.84,0.00,0.00,3.14,23.16,0.00,13.11,2.56,3.81,0.00,0.00,0.16
1,67.41,72.15,40.00,34.78,16.89,0.00,0.00,2.70,29.80,7.69,0.00,11.52,16.87,0.00,27.40,3.17,0.00,0.00,0.00,0.00,15.37,0.00,0.00,3.08,23.54,0.00,16.39,2.66,3.75,0.00,0.00,0.16
1,67.04,70.89,40.00,34.78,17.39,0.00,0.00,2.79,28.33,5.13,0.00,10.34,17.00,0.00,27.40,3.29,0.00,0.00,0.00,0.00,14.90,0.00,0.00,2.98,23.64,0.00,16.39,2.71,3.74,0.00,0.00,0.16
1,65.57,68.35,36.00,33.85,17.70,0.00,0.00,2.90,26.50,2.56,0.00,8.62,16.37,0.00,26.03,2.89,0.00,0.00,0.00,0.00,14.34,0.00,0.00,2.82,23.11,0.00,14.75,2.65,3.84,0.00,0.00,0.16
1,66.76,69.62,38.00,35.93,17.39,0.00,0.00,2.82,25.62,0.00,0.00,7.26,16.42,0.00,26.03,2.80,0.00,0.00,0.00,0.00,13.98,0.00,0.00,2.64,21.83,0.00,11.48,2.46,3.94,0.00,0.00,0.16
1,67.57,72.15,38.00,36.11,19.40,2.22,2.33,4.20,24.93,0.00,0.00,6.83,16.57,0.00,26.03,2.90,0.00,0.00,0.00,0.00,14.12,0.00,0.00,2.72,22.51,0.00,13.11,2.62,3.97,0.00,0.00,0.17
1,66.91,69.62,38.00,35.33,19.61,2.22,2.33,4.22,25.17,0.00,0.00,6.89,16.66,0.00,26.03,2.98,0.00,0.00,0.00,0.00,14.70,0.00,0.00,2.90,22.36,0.00,13.11,2.55,3.91,0.00,0.00,0.16
1,65.13,67.09,36.00,34.18,20.00,2.22,2.33,4.29,26.04,0.00,0.00,7.36,16.84,0.00,26.03,3.02,0.00,0.00,0.00,0.00,14.87,0.00,0.00,3.00,22.66,0.00,14.75,2.62,3.83,0.00,0.00,0.16
1,64.79,67.09,36.00,34.22,20.36,2.22,2.33,4.35,26.67,0.00,0.00,7.66,16.70,0.00,23.29,2.97,0.00,0.00,0.00,0.00,14.65,0.00,0.00,2.98,22.69,0.00,14.75,2.62,3.96,0.00,0.00,0.16
1,65.43,69.62,36.00,34.55,20.09,2.22,2.33,4.28,27.66,0.00,0.00,8.48,17.41,0.00,24.66,3.25,0.00,0.00,0.00,0.00,14.73,0.00,0.00,3.04,21.39,0.00,11.48,2.32,3.89,0.00,0.00,0.16
1,62.01,67.09,30.00,32.41,20.01,2.22,2.33,4.27,28.58,0.00,0.00,9.31,17.51,0.00,24.66,3.26,0.00,0.00,0.00,0.00,14.67,0.00,0.00,3.03,20.82,0.00,11.48,2.24,3.79,0.00,0.00,0.15
1,59.76,67.09,28.00,28.66,19.67,2.22,2.33,4.22,28.38,0.00,0.00,9.08,16.94,0.00,21.92,3.13,0.00,0.00,0.00,0.00,14.78,0.00,0.00,3.14,20.62,0.00,9.84,2.11,3.84,0.00,0.00,0.15
1,60.24,69.62,28.00,28.81,19.41,2.22,2.33,4.19,28.03,0.00,0.00,9.11,17.05,0.00,20.55,3.23,0.00,0.00,0.00,0.00,15.13,0.00,0.00,3.25,20.52,0.00,9.84,2.10,3.66,0.00,0.00,0.14
1,59.03,69.62,26.00,28.21,19.35,2.22,2.33,4.19,27.65,0.00,0.00,9.19,16.59,0.00,17.81,3.20,0.00,0.00,0.00,0.00,14.69,0.00,0.00,3.17,21.04,0.00,9.84,2.18,3.57,0.00,0.00,0.15
1,57.56,67.09,26.00,26.40,19.53,2.22,2.33,4.23,27.20,0.00,0.00,8.95,16.20,0.00,16.44,3.08,0.00,0.00,0.00,0.00,14.85,0.00,0.00,3.19,20.31,0.00,9.84,2.11,3.50,0.00,0.00,0.14
1,57.05,68.35,26.00,24.97,19.91,2.22,2.33,4.38,27.98,0.00,0.00,9.11,16.14,0.00,16.44,3.05,0.00,0.00,0.00,0.00,14.61,0.00,0.00,3.10,20.08,0.00,9.84,2.06,3.33,0.00,0.00,0.12
1,52.17,62.03,16.00,21.87,20.80,2.22,2.33,4.65,28.59,0.00,0.00,9.33,15.73,0.00,13.70,2.96,0.00,0.00,0.00,0.00,14.13,0.00,0.00,2.98,20.05,0.00,9.84,2.01,3.45,0.00,0.00,0.13
1,51.68,60.76,14.00,21.11,20.94,2.22,2.33,4.68,29.02,0.00,0.00,9.35,15.69,0.00,12.33,2.96,0.00,0.00,0.00,0.00,13.73,0.00,0.00,2.87,20.40,0.00,9.84,2.08,3.36,0.00,0.00,0.12
1,52.02,60.76,14.00,21.16,20.92,2.22,2.33,4.74,29.48,0.00,0.00,9.38,15.54,0.00,13.70,2.94,0.00,0.00,0.00,0.00,13.31,0.00,0.00,2.70,19.89,0.00,8.20,1.98,3.43,0.00,0.00,0.12
1,51.88,58.23,12.00,21.25,20.80,2.22,2.33,4.71,29.72,0.00,0.00,9.63,15.59,0.00,13.70,2.88,0.00,0.00,0.00,0.00,13.38,0.00,0.00,2.71,20.53,0.00,11.48,2.06,3.38,0.00,0.00,0.12
1,50.97,55.70,12.00,21.60,20.99,2.22,2.33,4.73,29.81,0.00,0.00,9.59,15.72,0.00,15.07,2.87,0.00,0.00,0.00,0.00,13.44,0.00,0.00,2.78,20.06,0.00,11.48,1.96,3.45,0.00,0.00,0.13
1,52.09,58.23,12.00,22.25,21.39,2.22,2.33,4.96,29.19,0.00,0.00,9.36,16.03,0.00,16.44,2.99,0.00,0.00,0.00,0.00,13.35,0.00,0.00,2.76,20.78,0.00,13.11,2.04,3.37,0.00,0.00,0.13
1,49.89,55.70,12.00,20.39,21.03,2.22,2.33,4.71,28.31,0.00,0.00,9.01,16.12,0.00,16.44,2.90,0.00,0.00,0.00,0.00,13.46,0.00,0.00,2.91,20.47,0.00,9.84,1.98,3.53,0.00,0.00,0.14
1,52.01,59.49,14.00,22.86,20.10,2.22,2.33,4.41,28.30,0.00,0.00,8.71,15.90,0.00,16.44,2.71,0.00,0.00,0.00,0.00,13.56,0.00,0.00,2.89,19.79,0.00,8.20,1.82,3.51,0.00,0.00,0.14
1,50.53,55.70,14.00,20.74,19.72,2.22,2.33,4.28,28.57,0.00,0.00,8.88,15.96,0.00,15.07,2.74,0.00,0.00,0.00,0.00,13.26,0.00,0.00,2.76,19.94,0.00,8.20,1.84,3.60,0.00,0.00,0.15
1,48.30,53.16,14.00,18.24,19.54,2.22,2.33,4.25,28.13,0.00,0.00,8.50,16.00,0.00,15.07,2.82,0.00,0.00,0.00,0.00,13.22,0.00,0.00,2.73,20.41,0.00,9.84,1.88,3.68,0.00,0.00,0.16
1,47.03,48.10,12.00,17.80,17.59,0.00,0.00,2.93,27.50,0.00,0.00,8.01,15.63,0.00,16.44,2.64,0.00,0.00,0.00,0.00,13.13,0.00,0.00,2.68,19.98,0.00,8.20,1.78,3.54,0.00,0.00,0.16
1,47.70,49.37,12.00,17.99,18.09,0.00,0.00,3.09,27.41,0.00,0.00,7.67,15.27,0.00,16.44,2.54,0.00,0.00,0.00,0.00,12.67,0.00,0.00,2.54,19.72,0.00,8.20,1.77,3.55,0.00,0.00,0.16
1,48.20,48.10,14.00,18.94,17.86,0.00,0.00,3.11,26.27,0.00,0.00,7.05,14.98,0.00,16.44,2.45,0.00,0.00,0.00,0.00,12.52,0.00,0.00,2.47,19.65,0.00,6.56,1.70,3.45,0.00,0.00,0.15
1,50.32,51.90,16.00,19.91,17.93,0.00,0.00,3.15,25.63,0.00,0.00,6.65,15.40,0.00,17.81,2.52,0.00,0.00,0.00,0.00,12.23,0.00,0.00,2.33,19.79,0.00,6.56,1.80,3.36,0.00,0.00,0.15
1,49.05,48.10,16.00,19.66,17.97,0.00,0.00,3.14,25.15,0.00,0.00,6.03,14.53,0.00,15.07,2.22,0.00,0.00,0.00,0.00,12.37,0.00,0.00,2.27,20.28,0.00,6.56,1.88,3.45,0.00,0.00,0.15
1,49.57,46.84,16.00,20.18,18.18,0.00,0.00,3.16,23.64,0.00,0.00,4.95,14.90,0.00,15.07,2.40,0.00,0.00,0.00,0.00,12.55,0.00,0.00,2.32,20.84,0.00,8.20,1.96,3.43,0.00,0.00,0.15
1,47.92,43.04,14.00,19.68,18.16,0.00,0.00,3.14,23.94,0.00,0.00,4.99,14.95,0.00,15.07,2.41,0.00,0.00,0.00,0.00,12.33,0.00,0.00,2.22,21.42,0.00,11.48,2.01,3.59,0.00,0.00,0.16
1,49.54,45.57,18.00,20.77,18.05,0.00,0.00,3.17,24.78,0.00,0.00,5.19,14.78,0.00,15.07,2.31,0.00,0.00,0.00,0.00,12.12,0.00,0.00,2.12,21.15,0.00,11.48,1.99,3.68,0.00,0.00,0.17
1,48.90,44.30,18.00,20.65,17.45,0.00,0.00,3.07,24.95,0.00,0.00,5.13,15.20,0.00,16.44,2.38,0.00,0.00,0.00,0.00,12.16,0.00,0.00,2.15,21.11,0.00,11.48,1.94,3.60,0.00,0.00,0.16
1,48.63,44.30,18.00,20.75,17.50,0.00,0.00,3.06,25.13,0.00,0.00,5.06,15.58,0.00,17.81,2.48,0.00,0.00,0.00,0.00,11.88,0.00,0.00,2.10,20.70,0.00,11.48,1.88,3.53,0.00,0.00,0.15
1,48.40,44.30,18.00,20.62,17.22,0.00,0.00,2.96,25.11,0.00,0.00,5.21,15.89,0.00,17.81,2.57,0.00,0.00,0.00,0.00,12.23,0.00,0.00,2.32,20.87,0.00,13.11,1.91,3.55,0.00,0.00,0.16
1,49.78,46.84,18.00,21.75,16.51,0.00,0.00,2.70,24.29,0.00,0.00,4.96,16.69,0.00,19.18,2.84,0.00,0.00,0.00,0.00,12.13,0.00,0.00,2.28,20.61,0.00,13.11,1.85,3.44,0.00,0.00,0.15
1,50.27,46.84,18.00,22.19,16.26,0.00,0.00,2.69,24.04,0.00,0.00,4.95,16.80,0.00,19.18,2.87,0.00,0.00,0.00,0.00,12.21,0.00,0.00,2.25,20.37,0.00,13.11,1.85,3.44,0.00,0.00,0.15
1,49.99,48.10,18.00,22.50,15.85,0.00,0.00,2.54,23.97,0.00,0.00,4.96,16.81,0.00,19.18,2.93,0.00,0.00,0.00,0.00,13.11,0.00,0.00,2.73,20.38,0.00,13.11,1.86,3.39,0.00,0.00,0.15
1,49.04,45.57,18.00,21.74,15.53,0.00,0.00,2.47,23.02,0.00,0.00,4.71,16.88,0.00,20.55,2.94,0.00,0.00,0.00,0.00,12.79,0.00,0.00,2.66,19.25,0.00,9.84,1.71,3.30,0.00,0.00,0.15
1,47.27,44.30,16.00,20.01,15.67,0.00,0.00,2.56,23.37,0.00,0.00,4.69,16.89,0.00,19.18,2.88,0.00,0.00,0.00,0.00,12.71,0.00,0.00,2.61,19.40,0.00,9.84,1.74,3.29,0.00,0.00,0.14
1,46.34,43.04,16.00,19.43,15.03,0.00,0.00,2.36,22.91,0.00,0.00,4.72,16.81,0.00,19.18,2.86,0.00,0.00,0.00,0.00,13.06,0.00,0.00,2.72,18.81,0.00,8.20,1.66,3.31,0.00,0.00,0.14
1,46.05,43.04,16.00,19.42,14.89,0.00,0.00,2.27,23.05,0.00,0.00,4.80,16.78,0.00,19.18,2.93,0.00,0.00,0.00,0.00,12.71,0.00,0.00,2.49,19.18,0.00,8.20,1.70,3.31,0.00,0.00,0.14
1,43.91,40.51,12.00,17.62,15.17,0.00,0.00,2.31,23.27,0.00,0.00,5.06,17.45,0.00,19.18,3.34,0.00,0.00,0.00,0.00,12.62,0.00,0.00,2.43,18.84,0.00,8.20,1.68,3.16,0.00,0.00,0.13
1,43.57,39.24,12.00,17.31,16.26,0.00,0.00,2.79,24.57,0.00,0.00,6.07,17.47,0.00,19.18,3.33,0.00,0.00,0.00,0.00,12.78,0.00,0.00,2.50,19.27,0.00,9.84,1.77,3.15,0.00,0.00,0.12
1,42.70,39.24,12.00,17.16,16.60,0.00,0.00,2.88,24.29,0.00,0.00,5.96,16.86,0.00,17.81,3.13,0.00,0.00,0.00,0.00,12.90,0.00,0.00,2.56,18.49,0.00,8.20,1.69,3.01,0.00,0.00,0.11
1,42.21,39.24,12.00,16.74,16.59,0.00,0.00,2.90,25.29,0.00,0.00,6.60,16.54,0.00,15.07,3.09,0.00,0.00,0.00,0.00,12.91,0.00,0.00,2.62,18.77,0.00,8.20,1.76,3.19,0.00,0.00,0.12
1,42.19,39.24,12.00,16.79,16.32,0.00,0.00,2.69,25.37,0.00,0.00,6.57,16.77,0.00,15.07,3.13,0.00,0.00,0.00,0.00,12.85,0.00,0.00,2.62,18.18,0.00,8.20,1.68,3.26,0.00,0.00,0.12
1,40.04,36.71,10.00,15.50,16.81,0.00,0.00,2.96,25.13,0.00,0.00,6.57,17.00,0.00,15.07,3.23,0.00,0.00,0.00,0.00,13.29,0.00,0.00,2.77,17.80,0.00,8.20,1.61,3.39,0.00,0.00,0.13
1,39.00,34.18,10.00,15.28,16.45,0.00,0.00,2.77,25.32,0.00,0.00,6.49,17.00,0.00,15.07,3.21,0.00,0.00,0.00,0.00,13.45,0.00,0.00,2.91,17.68,0.00,8.20,1.54,3.49,0.00,0.00,0.14
1,38.50,34.18,10.00,14.90,16.68,0.00,0.00,2.83,26.27,0.00,0.00,6.98,17.50,0.00,17.81,3.41,0.00,0.00,0.00,0.00,14.07,0.00,0.00,3.14,18.14,0.00,8.20,1.56,3.54,0.00,0.00,0.14
1,40.63,37.97,12.00,16.99,16.76,0.00,0.00,2.89,26.89,0.00,0.00,7.45,17.29,0.00,17.81,3.33,0.00,0.00,0.00,0.00,13.69,0.00,0.00,3.05,17.57,0.00,6.56,1.46,3.48,0.00,0.00,0.13
1,40.20,39.24,12.00,16.93,17.24,0.00,0.00,3.00,27.83,0.00,0.00,8.22,17.48,0.00,17.81,3.35,0.00,0.00,0.00,0.00,13.42,0.00,0.00,2.97,17.57,0.00,4.92,1.44,3.42,0.00,0.00,0.13
1,39.46,39.24,8.00,16.31,17.71,0.00,0.00,3.06,27.48,0.00,0.00,8.23,17.55,0.00,17.81,3.34,0.00,0.00,0.00,0.00,13.42,0.00,0.00,2.89,17.93,0.00,4.92,1.63,3.29,0.00,0.00,0.12
1,39.40,37.97,8.00,16.01,18.15,0.00,0.00,3.14,26.91,0.00,0.00,8.35,17.68,0.00,16.44,3.49,0.00,0.00,0.00,0.00,13.34,0.00,0.00,2.90,18.83,0.00,6.56,1.85,3.42,0.00,0.00,0.12
1,40.09,39.24,8.00,16.27,18.19,0.00,0.00,3.16,26.77,0.00,0.00,8.56,17.10,0.00,13.70,3.43,0.00,0.00,0.00,0.00,13.23,0.00,0.00,2.88,19.08,0.00,6.56,1.89,3.50,0.00,0.00,0.13
1,39.10,35.44,6.00,15.41,18.45,0.00,0.00,3.19,26.31,0.00,0.00,8.35,17.14,0.00,13.70,3.47,0.00,0.00,0.00,0.00,13.83,0.00,0.00,3.06,19.60,0.00,6.56,1.98,3.53,0.00,0.00,0.13
1,37.73,32.91,6.00,14.01,18.02,0.00,0.00,3.12,26.38,0.00,0.00,8.56,16.09,0.00,12.33,3.11,0.00,0.00,0.00,0.00,13.22,0.00,0.00,2.78,19.47,0.00,4.92,1.96,3.68,0.00,0.00,0.14
1,36.63,31.65,6.00,13.59,18.41,0.00,0.00,3.27,26.52,0.00,0.00,8.62,16.32,0.00,13.70,3.16,0.00,0.00,0.00,0.00,13.56,0.00,0.00,2.86,19.88,0.00,4.92,2.02,3.70,0.00,0.00,0.14
1,36.51,31.65,6.00,13.57,18.53,0.00,0.00,3.29,26.14,0.00,0.00,8.64,16.33,0.00,13.70,3.21,0.00,0.00,0.00,0.00,12.80,0.00,0.00,2.47,20.43,0.00,6.56,2.07,3.74,0.00,0.00,0.14
1,35.71,29.11,6.00,13.20,18.82,0.00,0.00,3.39,26.24,0.00,0.00,8.57,16.35,0.00,12.33,3.15,0.00,0.00,0.00,0.00,12.86,0.00,0.00,2.42,20.41,0.00,6.56,2.07,3.84,0.00,0.00,0.15
1,37.83,31.65,8.00,15.02,18.83,0.00,0.00,3.38,27.48,0.00,0.00,9.61,16.51,0.00,10.96,3.30,0.00,0.00,0.00,0.00,13.40,0.00,0.00,2.61,20.87,0.00,8.20,2.15,3.81,0.00,0.00,0.15
1,38.19,32.91,8.00,15.22,18.82,0.00,0.00,3.36,28.18,0.00,0.00,10.12,16.30,0.00,10.96,3.27,0.00,0.00,0.00,0.00,12.84,0.00,0.00,2.49,21.01,0.00,8.20,2.16,3.77,0.00,0.00,0.14
1,37.59,32.91,6.00,14.73,19.12,0.00,0.00,3.35,28.70,0.00,0.00,10.24,16.29,0.00,10.96,3.23,0.00,0.00,0.00,0.00,12.93,0.00,0.00,2.54,20.62,0.00,8.20,2.13,3.83,0.00,0.00,0.15
1,37.40,31.65,6.00,14.43,18.87,0.00,0.00,3.32,29.20,0.00,0.00,10.11,15.29,0.00,9.59,2.72,0.00,0.00,0.00,0.00,12.94,0.00,0.00,2.57,20.29,0.00,8.20,2.09,3.86,0.00,0.00,0.15
1,37.09,31.65,6.00,14.17,17.71,0.00,0.00,2.87,27.35,0.00,0.00,9.12,15.19,0.00,9.59,2.68,0.00,0.00,0.00,0.00,13.19,0.00,0.00,2.64,19.46,0.00,6.56,1.97,3.82,0.00,0.00,0.15
1,37.92,31.65,6.00,14.25,18.27,0.00,0.00,2.90,27.41,0.00,0.00,9.10,15.03,0.00,9.59,2.73,0.00,0.00,0.00,0.00,13.32,0.00,0.00,2.66,20.15,0.00,6.56,2.06,3.81,0.00,0.00,0.16
1,39.84,32.91,8.00,16.24,17.95,0.00,0.00,2.82,27.11,0.00,0.00,8.80,15.50,0.00,10.96,2.86,0.00,0.00,0.00,0.00,13.54,0.00,0.00,2.65,19.85,0.00,6.56,2.01,3.78,0.00,0.00,0.16
1,39.86,32.91,8.00,15.82,18.02,0.00,0.00,3.09,26.71,0.00,0.00,9.03,15.25,0.00,10.96,2.86,0.00,0.00,0.00,0.00,13.95,0.00,0.00,2.81,20.33,0.00,8.20,2.08,3.77,0.00,0.00,0.16
1,40.51,32.91,8.00,16.19,17.51,0.00,0.00,2.86,27.64,0.00,0.00,9.48,15.45,0.00,12.33,2.92,0.00,0.00,0.00,0.00,13.94,0.00,0.00,2.80,20.37,0.00,8.20,2.12,3.80,0.00,0.00,0.16
1,42.51,35.44,10.00,17.27,17.18,0.00,0.00,2.79,27.69,0.00,0.00,9.60,15.48,0.00,12.33,2.99,0.00,0.00,0.00,0.00,13.51,0.00,0.00,2.60,20.33,0.00,8.20,2.12,3.75,0.00,0.00,0.15
1,41.59,32.91,8.00,16.85,17.79,0.00,0.00,3.10,27.24,0.00,0.00,9.62,15.39,0.00,9.59,3.02,0.00,0.00,0.00,0.00,13.56,0.00,0.00,2.64,20.97,0.00,9.84,2.32,3.77,0.00,0.00,0.15
1,41.03,31.65,6.00,15.07,17.83,0.00,0.00,3.08,27.55,0.00,0.00,9.53,15.43,0.00,9.59,3.00,0.00,0.00,0.00,0.00,13.73,0.00,0.00,2.82,20.54,0.00,9.84,2.30,3.77,0.00,0.00,0.15
1,41.65,32.91,6.00,15.52,17.28,0.00,0.00,2.97,26.25,0.00,0.00,8.91,16.06,0.00,12.33,3.36,0.00,0.00,0.00,0.00,14.30,0.00,0.00,3.01,20.38,0.00,9.84,2.35,3.76,0.00,0.00,0.16
1,43.00,35.44,6.00,16.00,17.00,0.00,0.00,2.89,27.42,2.56,0.00,9.74,16.25,0.00,13.70,3.47,0.00,0.00,0.00,0.00,14.74,0.00,0.00,3.21,19.58,0.00,9.84,2.10,3.75,0.00,0.00,0.15
1,42.41,34.18,8.00,16.22,16.48,0.00,0.00,2.82,28.43,2.56,0.00,10.43,16.28,0.00,13.70,3.49,0.00,0.00,0.00,0.00,15.27,0.00,0.00,3.40,18.62,0.00,8.20,1.84,3.65,0.00,0.00,0.15
1,44.12,37.97,10.00,16.86,16.69,0.00,0.00,2.90,29.99,2.56,0.00,11.30,17.02,0.00,15.07,3.67,0.00,0.00,0.00,0.00,16.07,0.00,0.00,3.60,18.96,0.00,9.84,1.87,3.52,0.00,0.00,0.14
1,46.69,40.51,14.00,19.37,16.68,0.00,0.00,2.96,31.02,2.56,0.00,11.84,17.81,0.00,17.81,3.90,0.00,0.00,0.00,0.00,16.01,0.00,0.00,3.73,18.89,0.00,9.84,1.82,3.51,0.00,0.00,0.14
1,47.20,43.04,14.00,19.87,16.87,0.00,0.00,3.00,32.05,2.56,0.00,12.54,17.89,0.00,17.81,3.90,0.00,0.00,0.00,0.00,16.33,0.00,0.00,3.82,19.09,0.00,9.84,1.83,3.37,0.00,0.00,0.13
1,47.80,43.04,14.00,20.05,16.80,0.00,0.00,3.01,32.40,2.56,0.00,12.91,18.24,0.00,17.81,4.17,0.00,0.00,0.00,0.00,16.31,0.00,0.00,3.79,18.62,0.00,9.84,1.81,3.43,0.00,0.00,0.14
1,49.13,44.30,16.00,20.14,16.95,0.00,0.00,3.09,32.71,2.56,0.00,13.03,18.17,0.00,17.81,4.18,0.00,0.00,0.00,0.00,16.50,0.00,0.00,3.81,17.87,0.00,8.20,1.70,3.43,0.00,0.00,0.13
1,51.09,48.10,20.00,21.53,16.66,0.00,0.00,2.98,33.47,2.56,0.00,13.39,18.10,0.00,17.81,4.15,0.00,0.00,0.00,0.00,16.37,0.00,0.00,3.81,18.05,0.00,8.20,1.72,3.30,0.00,0.00,0.13
1,50.55,48.10,20.00,21.03,16.75,0.00,0.00,2.96,32.24,2.56,0.00,12.60,18.03,0.00,20.55,4.00,0.00,0.00,0.00,0.00,16.37,0.00,0.00,3.83,17.31,0.00,6.56,1.62,3.40,0.00,0.00,0.13
1,50.68,45.57,22.00,21.45,16.76,0.00,0.00,2.94,30.85,2.56,0.00,11.70,17.99,0.00,19.18,4.13,0.00,0.00,0.00,0.00,16.78,0.00,0.00,3.95,17.54,0.00,6.56,1.62,3.62,0.00,0.00,0.15
1,49.33,43.04,22.00,21.10,16.72,0.00,0.00,2.93,30.63,2.56,0.00,11.75,18.27,0.00,23.29,4.17,0.00,0.00,0.00,0.00,17.31,0.00,0.00,4.16,17.85,0.00,6.56,1.61,3.65,0.00,0.00,0.15
1,49.06,41.77,22.00,21.36,16.68,0.00,0.00,2.89,30.79,2.56,0.00,12.31,18.61,0.00,23.29,4.32,0.00,0.00,0.00,0.00,17.54,0.00,0.00,4.23,17.93,0.00,6.56,1.62,3.54,0.00,0.00,0.14
1,49.90,41.77,22.00,21.57,17.18,0.00,0.00,2.94,30.66,2.56,0.00,12.33,18.49,0.00,23.29,4.35,0.00,0.00,0.00,0.00,17.27,0.00,0.00,4.15,18.44,0.00,8.20,1.68,3.60,0.00,0.00,0.14
1,50.75,44.30,22.00,22.76,16.99,0.00,0.00,3.00,31.15,2.56,0.00,12.51,19.15,0.00,24.66,4.55,0.00,0.00,0.00,0.00,17.36,0.00,0.00,4.19,18.38,0.00,8.20,1.69,3.61,0.00,0.00,0.14
1,48.22,40.51,20.00,21.03,16.73,0.00,0.00,2.94,31.94,2.56,0.00,13.07,18.88,0.00,23.29,4.43,0.00,0.00,0.00,0.00,17.17,0.00,0.00,4.17,17.96,0.00,8.20,1.62,3.64,0.00,0.00,0.14
1,48.95,41.77,20.00,21.14,15.76,0.00,0.00,2.63,32.00,2.56,0.00,13.04,19.26,0.00,24.66,4.49,0.00,0.00,0.00,0.00,17.03,0.00,0.00,4.11,18.23,0.00,8.20,1.63,3.66,0.00,0.00,0.14
1,48.63,41.77,20.00,20.95,16.32,0.00,0.00,2.69,32.02,2.56,0.00,12.88,19.11,0.00,23.29,4.41,0.00,0.00,0.00,0.00,16.96,0.00,0.00,4.03,18.01,0.00,6.56,1.58,3.49,0.00,0.00,0.13
1,48.17,44.30,18.00,20.29,16.77,0.00,0.00,2.80,32.04,2.56,0.00,12.76,18.83,0.00,21.92,4.21,0.00,0.00,0.00,0.00,16.87,0.00,0.00,4.01,18.55,0.00,8.20,1.68,3.57,0.00,0.00,0.14
1,51.04,48.10,24.00,22.37,15.85,0.00,0.00,2.51,31.86,2.56,0.00,12.96,18.82,0.00,21.92,4.26,0.00,0.00,0.00,0.00,17.00,0.00,0.00,4.03,17.94,0.00,8.20,1.53,3.51,0.00,0.00,0.13
1,51.35,48.10,26.00,22.54,15.74,0.00,0.00,2.45,31.08,2.56,0.00,12.18,18.31,0.00,20.55,4.03,0.00,0.00,0.00,0.00,16.32,0.00,0.00,3.72,18.44,0.00,8.20,1.56,3.50,0.00,0.00,0.14
1,50.67,45.57,26.00,22.07,15.51,0.00,0.00,2.40,31.51,2.56,0.00,12.10,17.42,0.00,17.81,3.64,0.00,0.00,0.00,0.00,15.76,0.00,0.00,3.56,18.14,0.00,6.56,1.59,3.41,0.00,0.00,0.13
1,50.98,45.57,26.00,22.28,15.82,0.00,0.00,2.45,30.51,0.00,0.00,11.45,17.04,0.00,16.44,3.50,0.00,0.00,0.00,0.00,15.69,0.00,0.00,3.62,18.29,0.00,6.56,1.65,3.39,0.00,0.00,0.13
1,50.11,43.04,24.00,21.56,16.05,0.00,0.00,2.48,29.43,0.00,0.00,10.64,16.81,0.00,16.44,3.34,0.00,0.00,0.00,0.00,15.51,0.00,0.00,3.47,18.46,0.00,6.56,1.66,3.46,0.00,0.00,0.14
1,49.02,40.51,24.00,21.27,16.09,0.00,0.00,2.48,28.04,0.00,0.00,9.47,16.32,0.00,15.07,3.22,0.00,0.00,0.00,0.00,14.75,0.00,0.00,3.19,17.91,0.00,4.92,1.59,3.53,0.00,0.00,0.14
1,46.87,37.97,20.00,19.17,16.26,0.00,0.00,2.42,27.20,0.00,0.00,9.26,15.59,0.00,12.33,3.00,0.00,0.00,0.00,0.00,14.68,0.00,0.00,3.11,17.91,0.00,6.56,1.62,3.54,0.00,0.00,0.14
1,47.47,40.51,22.00,18.87,15.91,0.00,0.00,2.34,25.73,0.00,0.00,8.14,15.88,0.00,12.33,2.98,0.00,0.00,0.00,0.00,14.48,0.00,0.00,2.99,17.44,0.00,6.56,1.56,3.48,0.00,0.00,0.14
1,47.11,40.51,22.00,18.71,15.42,0.00,0.00,2.16,25.65,0.00,0.00,8.00,15.19,0.00,10.96,2.70,0.00,0.00,0.00,0.00,14.52,0.00,0.00,3.02,17.01,0.00,6.56,1.53,3.47,0.00,0.00,0.14
1,48.43,43.04,24.00,19.72,15.30,0.00,0.00,2.09,26.03,0.00,0.00,8.22,15.55,0.00,10.96,2.83,0.00,0.00,0.00,0.00,14.69,0.00,0.00,3.09,18.19,0.00,6.56,1.72,3.34,0.00,0.00,0.13
1,47.16,43.04,20.00,19.61,15.28,0.00,0.00,2.13,27.05,2.56,0.00,9.26,15.97,0.00,12.33,3.02,0.00,0.00,0.00,0.00,14.70,0.00,0.00,3.07,18.22,0.00,6.56,1.75,3.41,0.00,0.00,0.14
1,45.82,41.77,20.00,18.33,14.68,0.00,0.00,2.04,26.82,2.56,0.00,9.00,15.79,0.00,10.96,2.98,0.00,0.00,0.00,0.00,13.92,0.00,0.00,2.83,18.39,0.00,6.56,1.74,3.48,0.00,0.00,0.14
1,45.64,43.04,18.00,18.37,14.33,0.00,0.00,1.93,27.14,2.56,0.00,9.24,15.45,0.00,10.96,2.83,0.00,0.00,0.00,0.00,13.87,0.00,0.00,2.76,18.03,0.00,6.56,1.72,3.32,0.00,0.00,0.13
1,45.91,43.04,16.00,18.06,13.93,0.00,0.00,1.85,27.66,2.56,0.00,9.50,15.70,0.00,9.59,2.99,0.00,0.00,0.00,0.00,13.72,0.00,0.00,2.67,18.11,0.00,6.56,1.76,3.25,0.00,0.00,0.12
1,46.50,43.04,16.00,18.14,14.52,0.00,0.00,1.99,26.49,2.56,0.00,8.66,15.55,0.00,9.59,2.85,0.00,0.00,0.00,0.00,13.36,0.00,0.00,2.56,19.22,0.00,8.20,1.89,3.34,0.00,0.00,0.13
1,46.27,45.57,16.00,17.93,14.42,0.00,0.00,2.00,26.97,2.56,0.00,8.83,15.82,0.00,9.59,2.97,0.00,0.00,0.00,0.00,13.24,0.00,0.00,2.47,19.09,0.00,6.56,1.92,3.23,0.00,0.00,0.12
1,46.45,46.84,16.00,17.96,14.56,0.00,0.00,2.05,27.64,2.56,0.00,9.21,15.52,0.00,9.59,2.89,0.00,0.00,0.00,0.00,13.16,0.00,0.00,2.43,18.95,0.00,6.56,1.91,3.27,0.00,0.00,0.13
1,47.78,48.10,18.00,17.94,15.42,0.00,0.00,2.15,27.52,2.56,0.00,9.25,15.78,0.00,9.59,2.96,0.00,0.00,0.00,0.00,13.73,0.00,0.00,2.75,19.04,0.00,6.56,1.92,3.15,0.00,0.00,0.12
1,48.01,50.63,18.00,17.99,15.70,0.00,0.00,2.23,27.11,2.56,0.00,9.09,15.49,0.00,8.22,2.97,0.00,0.00,0.00,0.00,12.76,0.00,0.00,2.46,18.83,0.00,6.56,1.90,3.09,0.00,0.00,0.12
1,49.57,54.43,22.00,19.22,16.25,0.00,0.00,2.41,26.92,2.56,0.00,9.31,15.33,0.00,8.22,2.97,0.00,0.00,0.00,0.00,13.70,0.00,0.00,3.14,18.89,0.00,6.56,1.93,3.23,0.00,0.00,0.13
1,50.28,54.43,24.00,19.49,15.96,0.00,0.00,2.30,27.02,2.56,0.00,9.44,15.83,0.00,9.59,3.16,0.00,0.00,0.00,0.00,13.73,0.00,0.00,3.16,18.47,0.00,4.92,1.84,3.24,0.00,0.00,0.12
1,49.79,54.43,24.00,19.05,16.26,0.00,0.00,2.38,27.32,2.56,0.00,9.88,15.93,0.00,10.96,3.16,0.00,0.00,0.00,0.00,13.52,0.00,0.00,3.12,18.40,0.00,4.92,1.86,3.37,0.00,0.00,0.13
1,48.91,53.16,22.00,18.50,16.22,0.00,0.00,2.42,29.00,5.13,0.00,11.46,17.03,0.00,12.33,3.84,0.00,0.00,0.00,0.00,13.43,0.00,0.00,3.06,18.75,0.00,4.92,1.90,3.43,0.00,0.00,0.13
1,48.01,53.16,22.00,18.31,16.44,0.00,0.00,2.49,29.32,5.13,0.00,11.62,17.78,0.00,13.70,4.11,0.00,0.00,0.00,0.00,13.94,0.00,0.00,3.22,18.81,0.00,6.56,1.87,3.42,0.00,0.00,0.13
1,47.69,54.43,22.00,18.03,16.76,0.00,0.00,2.65,28.80,5.13,0.00,11.56,17.73,0.00,13.70,4.15,0.00,0.00,0.00,0.00,14.33,0.00,0.00,3.32,19.10,0.00,8.20,1.89,3.41,0.00,0.00,0.13
1,47.32,55.70,22.00,17.81,16.99,0.00,0.00,2.70,29.40,5.13,0.00,12.09,17.84,0.00,13.70,4.26,0.00,0.00,0.00,0.00,14.34,0.00,0.00,3.31,19.28,0.00,11.48,1.91,3.58,0.00,0.00,0.14
1,47.65,56.96,22.00,18.52,17.66,0.00,0.00,2.83,30.08,5.13,0.00,12.44,18.05,0.00,13.70,4.26,0.00,0.00,0.00,0.00,14.25,0.00,0.00,3.26,19.59,0.00,11.48,1.93,3.59,0.00,0.00,0.14
1,48.96,59.49,24.00,20.41,17.73,0.00,0.00,2.84,30.07,5.13,0.00,12.29,17.63,0.00,13.70,4.16,0.00,0.00,0.00,0.00,15.24,1.41,0.00,3.87,19.67,0.00,9.84,1.93,3.61,0.00,0.00,0.15
1,47.38,55.70,20.00,19.18,17.96,0.00,0.00,2.89,30.14,5.13,0.00,12.45,18.16,0.00,15.07,4.38,0.00,0.00,0.00,0.00,15.64,1.41,0.00,4.27,19.84,0.00,9.84,1.95,3.69,0.00,0.00,0.15
1,47.38,54.43,20.00,19.04,18.90,0.00,0.00,3.40,30.17,5.13,0.00,12.39,17.85,0.00,15.07,4.30,0.00,0.00,0.00,0.00,16.02,1.41,0.00,4.45,20.26,0.00,9.84,1.98,3.75,0.00,0.00,0.15
1,45.13,49.37,18.00,17.88,18.87,0.00,0.00,3.39,29.43,5.13,0.00,11.61,17.27,0.00,13.70,4.03,0.00,0.00,0.00,0.00,17.10,4.23,0.00,5.04,19.90,0.00,9.84,1.92,3.84,0.00,0.00,0.16
1,44.15,48.10,16.00,17.29,19.09,0.00,0.00,3.41,28.27,2.56,0.00,10.45,17.27,0.00,12.33,4.15,0.00,0.00,0.00,0.00,19.85,7.04,1.96,7.53,19.64,0.00,9.84,1.81,4.18,0.00,0.00,0.18
0,44.53,46.84,16.00,17.81,19.38,0.00,0.00,3.49,29.12,2.56,0.00,10.54,17.68,0.00,15.07,4.21,0.00,0.00,0.00,0.00,20.98,7.04,1.96,8.03,19.57,0.00,9.84,1.84,4.04,0.00,0.00,0.17
0,43.56,44.30,16.00,17.61,19.59,0.00,0.00,3.52,28.85,2.56,0.00,10.32,17.84,0.00,15.07,4.19,0.00,0.00,0.00,0.00,21.45,8.45,1.96,8.46,20.11,0.00,11.48,1.88,4.07,0.00,0.00,0.18
0,43.02,43.04,16.00,17.08,19.89,0.00,0.00,3.55,28.87,2.56,0.00,10.20,17.52,0.00,13.70,4.00,0.00,0.00,0.00,0.00,23.40,9.86,3.92,9.99,20.44,0.00,13.11,1.91,4.05,0.00,0.00,0.17
0,43.52,46.84,18.00,17.01,19.53,0.00,0.00,3.50,30.07,2.56,0.00,10.81,17.55,0.00,15.07,4.05,0.00,0.00,0.00,0.00,25.00,11.27,3.92,10.81,19.80,0.00,11.48,1.78,3.93,0.00,0.00,0.17
0,44.74,46.84,18.00,17.50,19.03,0.00,0.00,3.35,29.62,2.56,0.00,10.36,17.56,0.00,16.44,3.99,0.00,0.00,0.00,0.00,25.77,12.68,3.92,11.39,19.88,0.00,13.11,1.82,4.04,0.00,0.00,0.17
0,45.28,46.84,20.00,18.90,18.56,0.00,0.00,3.22,28.52,2.56,0.00,9.79,17.42,0.00,15.07,3.89,0.00,0.00,0.00,0.00,26.77,12.68,3.92,11.87,20.10,0.00,13.11,1.82,4.03,0.00,0.00,0.17
0,43.89,44.30,18.00,18.01,17.93,0.00,0.00,3.12,28.39,2.56,0.00,9.25,17.11,0.00,15.07,3.83,0.00,0.00,0.00,0.00,27.14,14.08,3.92,12.25,19.91,0.00,13.11,1.82,4.06,0.00,0.00,0.17
0,45.56,44.30,22.00,18.98,17.97,0.00,0.00,3.06,29.15,2.56,0.00,9.41,17.29,0.00,15.07,3.77,0.00,0.00,0.00,0.00,28.95,15.49,3.92,13.05,20.25,0.00,13.11,1.85,4.20,0.00,0.00,0.18
0,43.76,39.24,18.00,17.70,17.79,0.00,0.00,3.05,29.35,2.56,0.00,9.56,17.64,0.00,16.44,3.93,0.00,0.00,0.00,0.00,28.73,15.49,3.92,12.80,19.66,0.00,13.11,1.74,4.02,0.00,0.00,0.17
0,41.51,36.71,16.00,16.76,17.62,0.00,0.00,2.95,29.81,2.56,0.00,9.84,17.78,0.00,16.44,4.02,0.00,0.00,0.00,0.00,28.61,15.49,3.92,12.70,19.92,0.00,13.11,1.78,3.99,0.00,0.00,0.17
0,40.25,34.18,12.00,16.46,17.91,0.00,0.00,3.08,29.63,2.56,0.00,9.45,17.64,0.00,16.44,3.96,0.00,0.00,0.00,0.00,29.16,15.49,3.92,12.88,19.54,0.00,11.48,1.72,3.96,0.00,0.00,0.16
0,37.72,30.38,10.00,14.56,17.23,0.00,0.00,2.85,29.63,0.00,0.00,9.09,16.50,0.00,15.07,3.35,0.00,0.00,0.00,0.00,29.46,15.49,3.92,12.93,19.80,0.00,13.11,1.80,3.91,0.00,0.00,0.16
0,37.38,30.38,10.00,14.34,17.32,0.00,0.00,2.86,29.81,0.00,0.00,9.08,16.53,0.00,15.07,3.29,0.00,0.00,0.00,0.00,30.00,16.90,3.92,13.28,18.96,0.00,11.48,1.67,3.92,0.00,0.00,0.16
0,36.12,27.85,10.00,13.90,16.88,0.00,0.00,2.65,30.28,0.00,0.00,9.14,16.68,0.00,15.07,3.20,0.00,0.00,0.00,0.00,29.60,16.90,3.92,13.09,18.54,0.00,9.84,1.57,4.01,0.00,0.00,0.17
0,37.59,29.11,12.00,14.42,16.58,0.00,0.00,2.63,29.42,0.00,0.00,8.78,16.45,0.00,15.07,3.07,0.00,0.00,0.00,0.00,29.21,16.90,3.92,12.97,17.95,0.00,6.56,1.48,3.84,0.00,0.00,0.15
0,38.14,29.11,12.00,14.66,15.87,0.00,0.00,2.49,28.80,0.00,0.00,8.17,16.49,0.00,16.44,3.00,0.00,0.00,0.00,0.00,29.47,16.90,3.92,13.03,18.57,0.00,8.20,1.58,3.85,0.00,0.00,0.15
0,37.35,27.85,10.00,13.78,15.41,0.00,0.00,2.35,29.07,0.00,0.00,8.22,16.48,0.00,16.44,2.98,0.00,0.00,0.00,0.00,29.83,16.90,3.92,13.54,18.58,0.00,8.20,1.60,3.85,0.00,0.00,0.15
0,37.08,27.85,10.00,13.11,15.40,0.00,0.00,2.35,29.83,0.00,0.00,8.99,16.11,0.00,16.44,2.80,0.00,0.00,0.00,0.00,29.29,15.49,3.92,12.84,18.59,0.00,8.20,1.63,3.91,0.00,0.00,0.15
0,36.00,26.58,10.00,12.75,14.45,0.00,0.00,1.97,29.72,0.00,0.00,9.29,16.39,0.00,17.81,3.01,0.00,0.00,0.00,0.00,28.72,15.49,3.92,12.59,17.97,0.00,8.20,1.55,3.94,0.00,0.00,0.15
0,36.04,26.58,10.00,12.80,14.85,0.00,0.00,2.08,29.94,0.00,0.00,9.39,16.15,0.00,17.81,2.98,0.00,0.00,0.00,0.00,27.50,14.08,3.92,11.91,17.86,0.00,8.20,1.50,3.85,0.00,0.00,0.15
0,36.42,26.58,10.00,12.93,14.62,0.00,0.00,2.02,29.44,0.00,0.00,9.29,16.23,0.00,17.81,2.86,0.00,0.00,0.00,0.00,24.89,9.86,1.96,9.94,18.21,0.00,8.20,1.56,3.52,0.00,0.00,0.13
0,35.43,24.05,10.00,11.89,14.30,0.00,0.00,1.97,29.44,0.00,0.00,9.36,15.71,0.00,13.70,2.75,0.00,0.00,0.00,0.00,23.79,9.86,1.96,9.10,18.20,0.00,8.20,1.55,3.51,0.00,0.00,0.12
0,35.09,24.05,10.00,11.57,14.54,0.00,0.00,2.03,29.97,0.00,0.00,9.60,15.59,0.00,15.07,2.78,0.00,0.00,0.00,0.00,22.81,8.45,1.96,8.52,18.81,0.00,9.84,1.62,3.50,0.00,0.00,0.12
0,35.54,24.05,10.00,11.90,14.47,0.00,0.00,2.03,28.81,0.00,0.00,9.30,15.57,0.00,15.07,2.84,0.00,0.00,0.00,0.00,21.00,7.04,0.00,7.30,18.11,0.00,8.20,1.59,3.45,0.00,0.00,0.12
0,34.67,21.52,8.00,11.05,14.86,0.00,0.00,2.17,27.82,0.00,0.00,8.61,15.60,0.00,13.70,2.88,0.00,0.00,0.00,0.00,19.46,5.63,0.00,6.38,18.35,0.00,8.20,1.63,3.46,0.00,0.00,0.12
0,33.38,21.52,8.00,10.65,14.64,0.00,0.00,2.14,27.31,0.00,0.00,8.56,15.68,0.00,13.70,2.88,0.00,0.00,0.00,0.00,18.41,5.63,0.00,5.90,17.44,0.00,6.56,1.49,3.41,0.00,0.00,0.12
0,31.90,18.99,6.00,9.02,14.77,0.00,0.00,2.22,28.93,0.00,0.00,9.32,16.13,0.00,15.07,2.99,0.00,0.00,0.00,0.00,17.20,4.23,0.00,5.28,17.67,0.00,6.56,1.57,3.40,0.00,0.00,0.12
0,31.81,20.25,6.00,9.00,14.84,0.00,0.00,2.23,29.77,0.00,0.00,9.88,15.85,0.00,16.44,2.91,0.00,0.00,0.00,0.00,16.09,2.82,0.00,4.32,18.15,0.00,6.56,1.60,3.46,0.00,0.00,0.12
0,33.49,25.32,10.00,10.23,15.25,0.00,0.00,2.36,29.47,0.00,0.00,9.81,15.57,0.00,16.44,2.85,0.00,0.00,0.00,0.00,15.16,1.41,0.00,3.69,18.15,0.00,6.56,1.61,3.42,0.00,0.00,0.12
0,32.33,24.05,10.00,9.26,15.14,0.00,0.00,2.39,29.08,0.00,0.00,9.46,15.25,0.00,15.07,2.69,0.00,0.00,0.00,0.00,14.33,1.41,0.00,3.50,18.07,0.00,6.56,1.61,3.42,0.00,0.00,0.12
0,32.30,22.78,10.00,9.18,14.98,0.00,0.00,2.33,28.72,0.00,0.00,9.21,14.81,0.00,15.07,2.43,0.00,0.00,0.00,0.00,13.87,1.41,0.00,3.29,18.30,0.00,6.56,1.62,3.41,0.00,0.00,0.12
0,32.32,24.05,10.00,9.16,14.85,0.00,0.00,2.25,28.85,0.00,0.00,9.22,14.35,0.00,15.07,2.30,0.00,0.00,0.00,0.00,13.06,1.41,0.00,3.01,17.71,0.00,6.56,1.54,3.37,0.00,0.00,0.12
0,32.72,24.05,10.00,9.18,14.97,0.00,0.00,2.22,27.46,0.00,0.00,8.57,14.30,0.00,15.07,2.26,0.00,0.00,0.00,0.00,13.01,1.41,0.00,3.03,18.34,0.00,8.20,1.65,3.39,0.00,0.00,0.12
0,33.06,24.05,10.00,9.26,15.03,0.00,0.00,2.29,26.60,0.00,0.00,7.84,14.08,0.00,15.07,2.16,0.00,0.00,0.00,0.00,12.29,0.00,0.00,2.75,18.43,0.00,8.20,1.67,3.36,0.00,0.00,0.11
0,33.64,24.05,10.00,9.40,15.61,0.00,0.00,2.41,26.91,0.00,0.00,8.34,13.95,0.00,15.07,2.20,0.00,0.00,0.00,0.00,12.43,0.00,0.00,2.60,18.22,0.00,8.20,1.67,3.29,0.00,0.00,0.11
0,33.40,24.05,8.00,9.36,15.45,0.00,0.00,2.42,27.36,0.00,0.00,8.44,14.00,0.00,15.07,2.29,0.00,0.00,0.00,0.00,12.82,0.00,0.00,2.74,18.87,0.00,8.20,1.77,3.41,0.00,0.00,0.12
0,32.26,20.25,8.00,8.57,15.61,0.00,0.00,2.41,28.78,2.56,0.00,9.19,14.07,0.00,16.44,2.29,0.00,0.00,0.00,0.00,12.73,0.00,0.00,2.64,18.52,0.00,6.56,1.73,3.35,0.00,0.00,0.12
0,31.20,18.99,8.00,8.00,15.72,0.00,0.00,2.49,28.55,2.56,0.00,9.18,14.03,0.00,16.44,2.28,0.00,0.00,0.00,0.00,11.93,0.00,0.00,1.98,18.41,0.00,6.56,1.71,3.32,0.00,0.00,0.12
0,31.18,18.99,8.00,7.86,15.40,0.00,0.00,2.42,27.60,2.56,0.00,8.38,13.71,0.00,15.07,2.24,0.00,0.00,0.00,0.00,11.95,0.00,0.00,2.00,18.37,0.00,6.56,1.72,3.30,0.00,0.00,0.12
0,30.95,18.99,8.00,7.89,15.50,0.00,0.00,2.35,28.43,2.56,0.00,8.87,13.57,0.00,13.70,2.16,0.00,0.00,0.00,0.00,13.37,1.41,0.00,2.90,18.38,0.00,6.56,1.72,3.27,0.00,0.00,0.12
0,31.06,18.99,8.00,7.90,15.27,0.00,0.00,2.31,27.99,2.56,0.00,8.89,13.95,0.00,15.07,2.27,0.00,0.00,0.00,0.00,13.62,1.41,0.00,2.98,19.00,0.00,8.20,1.84,3.28,0.00,0.00,0.12
0,31.00,18.99,8.00,7.89,15.28,0.00,0.00,2.31,28.84,2.56,0.00,9.10,13.91,0.00,15.07,2.19,0.00,0.00,0.00,0.00,13.53,1.41,0.00,2.97,18.61,0.00,8.20,1.78,3.31,0.00,0.00,0.12
0,31.80,18.99,8.00,8.27,15.02,0.00,0.00,2.25,29.04,2.56,0.00,9.32,13.63,0.00,15.07,2.13,0.00,0.00,0.00,0.00,13.58,1.41,0.00,2.87,18.94,0.00,8.20,1.87,3.31,0.00,0.00,0.12
0,32.39,18.99,8.00,8.84,14.59,0.00,0.00,2.16,29.04,2.56,0.00,9.47,13.71,0.00,15.07,2.13,0.00,0.00,0.00,0.00,13.81,1.41,0.00,3.10,18.22,0.00,4.92,1.89,3.35,0.00,0.00,0.12
0,32.30,18.99,8.00,8.55,15.29,0.00,0.00,2.40,30.79,2.56,0.00,10.78,13.57,0.00,13.70,2.08,0.00,0.00,0.00,0.00,13.88,1.41,0.00,3.12,18.12,0.00,4.92,1.80,3.36,0.00,0.00,0.12
0,31.91,18.99,8.00,8.45,14.65,0.00,0.00,2.30,30.65,2.56,0.00,10.96,13.92,0.00,13.70,2.18,0.00,0.00,0.00,0.00,14.41,1.41,0.00,3.29,17.95,0.00,4.92,1.76,3.28,0.00,0.00,0.11
0,31.31,17.72,8.00,8.09,14.87,0.00,0.00,2.32,31.44,2.56,0.00,11.46,13.97,0.00,15.07,2.21,0.00,0.00,0.00,0.00,14.87,1.41,0.00,3.40,18.53,0.00,4.92,1.80,3.38,0.00,0.00,0.12
0,31.54,17.72,8.00,8.22,14.59,0.00,0.00,2.25,31.18,2.56,0.00,11.41,13.60,0.00,13.70,2.09,0.00,0.00,0.00,0.00,15.88,1.41,0.00,3.87,18.48,0.00,4.92,1.76,3.36,0.00,0.00,0.12
0,31.01,15.19,8.00,8.01,14.91,0.00,0.00,2.38,30.30,2.56,0.00,11.21,13.57,0.00,12.33,2.09,0.00,0.00,0.00,0.00,16.27,1.41,0.00,4.02,17.92,0.00,4.92,1.78,3.28,0.00,0.00,0.12
0,28.17,10.13,2.00,6.69,14.40,0.00,0.00,2.24,29.69,2.56,0.00,11.15,13.90,0.00,13.70,2.14,0.00,0.00,0.00,0.00,17.15,1.41,0.00,4.26,17.82,0.00,4.92,1.76,3.27,0.00,0.00,0.11
0,27.43,7.59,0.00,6.26,14.28,0.00,0.00,2.22,30.54,2.56,0.00,11.50,14.39,0.00,15.07,2.28,0.00,0.00,0.00,0.00,17.24,1.41,0.00,4.33,17.68,0.00,4.92,1.77,3.16,0.00,0.00,0.10
0,27.09,7.59,0.00,6.12,14.12,0.00,0.00,2.19,29.84,2.56,0.00,11.14,14.50,0.00,15.07,2.27,0.00,0.00,0.00,0.00,17.25,1.41,0.00,4.36,17.60,0.00,4.92,1.70,3.10,0.00,0.00,0.10
0,27.53,8.86,0.00,6.38,14.14,0.00,0.00,2.18,30.01,2.56,0.00,10.96,14.50,0.00,13.70,2.30,0.00,0.00,0.00,0.00,18.30,1.41,0.00,4.59,17.74,0.00,6.56,1.73,3.28,0.00,0.00,0.11
0,27.78,10.13,0.00,6.44,14.04,0.00,0.00,2.20,30.43,2.56,0.00,10.93,15.00,0.00,16.44,2.36,0.00,0.00,0.00,0.00,18.14,1.41,0.00,4.54,17.33,0.00,3.28,1.57,3.22,0.00,0.00,0.11
