0,31.95,24.05,2.00,9.29,17.22,0.00,0.00,2.53,21.10,0.00,0.00,3.12,16.18,0.00,23.29,2.62,0.00,0.00,0.00,0.00,20.66,7.04,1.96,7.54,21.19,0.00,8.20,2.18,3.13,0.00,0.00,0.10
0,31.68,24.05,2.00,9.35,17.50,0.00,0.00,2.68,21.05,0.00,0.00,3.21,15.98,0.00,21.92,2.61,0.00,0.00,0.00,0.00,20.05,7.04,1.96,7.13,21.13,0.00,8.20,2.22,3.06,0.00,0.00,0.10
0,30.68,21.52,2.00,9.03,17.00,0.00,0.00,2.58,21.18,0.00,0.00,3.29,15.62,0.00,20.55,2.48,0.00,0.00,0.00,0.00,20.35,7.04,1.96,7.21,20.81,0.00,6.56,2.21,3.17,0.00,0.00,0.11
0,31.05,22.78,2.00,9.16,17.50,0.00,0.00,2.74,21.92,0.00,0.00,3.53,15.80,0.00,19.18,2.58,0.00,0.00,0.00,0.00,19.95,7.04,1.96,6.98,20.21,0.00,6.56,2.04,3.13,0.00,0.00,0.11
0,30.04,20.25,2.00,8.86,16.90,0.00,0.00,2.64,21.14,0.00,0.00,3.23,16.17,0.00,19.18,2.71,0.00,0.00,0.00,0.00,20.06,7.04,1.96,6.99,20.01,0.00,6.56,1.99,3.12,0.00,0.00,0.10
0,30.26,20.25,2.00,9.08,16.94,0.00,0.00,2.63,21.13,0.00,0.00,3.17,16.00,0.00,19.18,2.72,0.00,0.00,0.00,0.00,19.83,7.04,1.96,6.97,20.44,0.00,8.20,2.08,3.14,0.00,0.00,0.10
0,30.23,20.25,2.00,8.93,16.62,0.00,0.00,2.57,21.20,0.00,0.00,3.19,16.22,0.00,20.55,2.73,0.00,0.00,0.00,0.00,19.97,7.04,1.96,6.93,19.99,0.00,6.56,2.04,3.06,0.00,0.00,0.10
0,31.20,20.25,2.00,9.27,16.57,0.00,0.00,2.48,21.16,0.00,0.00,3.14,16.51,0.00,21.92,2.80,0.00,0.00,0.00,0.00,19.64,5.63,1.96,6.72,20.09,0.00,6.56,2.10,3.07,0.00,0.00,0.10
0,31.19,20.25,4.00,9.36,16.15,0.00,0.00,2.45,20.84,0.00,0.00,3.11,16.31,0.00,20.55,2.79,0.00,0.00,0.00,0.00,20.16,5.63,1.96,6.81,19.65,0.00,6.56,1.93,3.20,0.00,0.00,0.10
0,31.11,20.25,4.00,9.34,16.44,0.00,0.00,2.60,20.00,0.00,0.00,2.95,16.14,0.00,19.18,2.83,0.00,0.00,0.00,0.00,20.53,5.63,1.96,6.94,19.16,0.00,6.56,1.82,3.09,0.00,0.00,0.10
0,31.10,18.99,4.00,9.31,16.09,0.00,0.00,2.50,19.05,0.00,0.00,2.75,15.93,0.00,19.18,2.77,0.00,0.00,0.00,0.00,20.39,5.63,1.96,6.93,18.54,0.00,4.92,1.70,3.14,0.00,0.00,0.11
0,30.94,18.99,4.00,9.18,16.61,0.00,0.00,2.62,19.81,0.00,0.00,2.89,16.11,0.00,19.18,2.79,0.00,0.00,0.00,0.00,20.02,5.63,1.96,6.83,18.26,0.00,4.92,1.68,3.14,0.00,0.00,0.10
0,31.23,20.25,4.00,9.45,16.20,0.00,0.00,2.58,19.98,0.00,0.00,2.91,16.10,0.00,19.18,2.77,0.00,0.00,0.00,0.00,20.38,5.63,1.96,6.88,18.42,0.00,4.92,1.70,3.09,0.00,0.00,0.10
0,30.00,16.46,4.00,9.00,15.98,0.00,0.00,2.53,20.85,2.56,0.00,3.61,16.57,0.00,21.92,2.92,0.00,0.00,0.00,0.00,20.43,5.63,1.96,6.75,17.63,0.00,4.92,1.61,3.03,0.00,0.00,0.10
0,29.75,16.46,4.00,8.80,15.48,0.00,0.00,2.35,22.15,2.56,0.00,4.02,16.59,0.00,21.92,2.84,0.00,0.00,0.00,0.00,20.26,5.63,1.96,6.40,17.79,0.00,3.28,1.61,3.06,0.00,0.00,0.10
0,29.17,16.46,4.00,8.68,15.29,0.00,0.00,2.33,21.79,2.56,0.00,4.08,17.15,0.00,21.92,3.05,0.00,0.00,0.00,0.00,19.68,4.23,1.96,6.14,17.90,0.00,4.92,1.66,2.96,0.00,0.00,0.10
0,28.42,15.19,2.00,8.58,15.32,0.00,0.00,2.38,21.14,2.56,0.00,3.96,17.13,0.00,21.92,3.06,0.00,0.00,0.00,0.00,17.44,0.00,0.00,4.41,18.58,0.00,6.56,1.83,3.10,0.00,0.00,0.11
0,27.19,12.66,2.00,7.26,14.90,0.00,0.00,2.29,22.73,2.56,0.00,4.58,17.37,0.00,23.29,3.12,0.00,0.00,0.00,0.00,16.43,0.00,0.00,3.91,17.91,0.00,4.92,1.74,3.24,0.00,0.00,0.12
0,26.44,11.39,2.00,6.92,15.06,0.00,0.00,2.33,23.62,2.56,0.00,5.02,16.83,0.00,21.92,3.02,0.00,0.00,0.00,0.00,16.16,0.00,0.00,3.80,17.76,0.00,4.92,1.75,3.23,0.00,0.00,0.12
0,25.49,10.13,2.00,6.67,15.28,0.00,0.00,2.32,23.46,2.56,0.00,4.99,16.33,0.00,20.55,2.92,0.00,0.00,0.00,0.00,15.75,0.00,0.00,3.59,17.72,0.00,4.92,1.75,3.22,0.00,0.00,0.13
0,24.66,10.13,2.00,6.26,15.03,0.00,0.00,2.29,23.72,2.56,0.00,5.24,16.47,0.00,20.55,3.02,0.00,0.00,0.00,0.00,14.85,0.00,0.00,3.31,17.63,0.00,4.92,1.77,3.24,0.00,0.00,0.13
0,24.24,10.13,2.00,5.94,14.31,0.00,0.00,2.13,23.81,2.56,0.00,5.16,15.96,0.00,17.81,2.93,0.00,0.00,0.00,0.00,15.63,1.41,0.00,3.65,17.61,0.00,4.92,1.82,3.26,0.00,0.00,0.13
0,24.38,8.86,2.00,5.81,14.14,0.00,0.00,2.02,25.01,2.56,0.00,5.47,15.77,0.00,16.44,2.83,0.00,0.00,0.00,0.00,15.67,1.41,0.00,3.64,17.59,0.00,4.92,1.76,3.46,0.00,0.00,0.16
0,24.37,8.86,2.00,5.87,14.83,0.00,0.00,2.12,24.88,2.56,0.00,5.33,16.09,0.00,17.81,2.89,0.00,0.00,0.00,0.00,15.81,1.41,0.00,3.57,17.80,0.00,6.56,1.78,3.36,0.00,0.00,0.15
0,23.57,7.59,2.00,5.68,13.57,0.00,0.00,1.79,24.29,2.56,0.00,5.16,15.68,0.00,16.44,2.78,0.00,0.00,0.00,0.00,15.73,1.41,0.00,3.51,17.56,0.00,6.56,1.73,3.38,0.00,0.00,0.15
0,24.46,7.59,2.00,5.90,14.01,0.00,0.00,1.85,24.05,2.56,0.00,5.10,15.29,0.00,16.44,2.62,0.00,0.00,0.00,0.00,15.63,1.41,0.00,3.45,17.35,0.00,6.56,1.66,3.53,0.00,0.00,0.16
0,24.59,7.59,2.00,5.84,14.54,0.00,0.00,1.94,25.09,2.56,0.00,5.34,14.96,0.00,16.44,2.47,0.00,0.00,0.00,0.00,15.44,1.41,0.00,3.26,17.03,0.00,4.92,1.62,3.47,0.00,0.00,0.16
0,24.48,7.59,2.00,5.76,14.81,0.00,0.00,2.01,25.23,2.56,0.00,5.51,15.05,0.00,16.44,2.59,0.00,0.00,0.00,0.00,15.96,1.41,0.00,3.45,16.94,0.00,4.92,1.58,3.53,0.00,0.00,0.16
0,23.79,7.59,2.00,5.45,14.84,0.00,0.00,1.99,25.90,2.56,0.00,5.73,14.99,0.00,15.07,2.58,0.00,0.00,0.00,0.00,15.15,1.41,0.00,3.18,16.69,0.00,4.92,1.51,3.57,0.00,0.00,0.17
0,21.75,5.06,0.00,4.49,15.67,0.00,0.00,2.36,26.36,2.56,0.00,5.88,15.20,0.00,16.44,2.65,0.00,0.00,0.00,0.00,15.14,1.41,0.00,3.15,16.41,0.00,4.92,1.49,3.52,0.00,0.00,0.16
0,22.38,6.33,0.00,4.69,14.92,0.00,0.00,2.16,26.63,2.56,0.00,5.90,15.44,0.00,17.81,2.68,0.00,0.00,0.00,0.00,14.29,1.41,0.00,2.93,16.22,0.00,4.92,1.48,3.57,0.00,0.00,0.16
0,23.15,8.86,0.00,5.00,14.22,0.00,0.00,2.03,27.17,2.56,0.00,6.04,15.90,0.00,17.81,2.83,0.00,0.00,0.00,0.00,14.55,1.41,0.00,3.00,16.09,0.00,4.92,1.45,3.57,0.00,0.00,0.16
0,22.89,8.86,0.00,4.89,14.26,0.00,0.00,1.98,26.97,2.56,0.00,6.04,15.21,0.00,16.44,2.67,0.00,0.00,0.00,0.00,14.98,1.41,0.00,3.23,15.89,0.00,4.92,1.42,3.57,0.00,0.00,0.16
0,21.61,6.33,0.00,4.33,14.53,0.00,0.00,2.02,27.78,2.56,0.00,6.23,15.08,0.00,17.81,2.58,0.00,0.00,0.00,0.00,15.10,1.41,0.00,3.26,15.76,0.00,4.92,1.39,3.51,0.00,0.00,0.16
0,21.92,6.33,0.00,4.41,14.65,0.00,0.00,2.03,27.02,0.00,0.00,5.59,14.98,0.00,15.07,2.52,0.00,0.00,0.00,0.00,14.84,1.41,0.00,3.17,16.32,0.00,4.92,1.44,3.46,0.00,0.00,0.16
0,22.66,7.59,0.00,4.46,14.31,0.00,0.00,1.95,25.92,0.00,0.00,5.22,14.93,0.00,15.07,2.53,0.00,0.00,0.00,0.00,14.77,1.41,0.00,3.28,15.90,0.00,4.92,1.38,3.51,0.00,0.00,0.16
0,22.71,5.06,0.00,4.33,14.76,0.00,0.00,1.99,25.75,0.00,0.00,5.01,14.58,0.00,15.07,2.34,0.00,0.00,0.00,0.00,14.86,1.41,0.00,3.27,15.72,0.00,3.28,1.34,3.64,0.00,0.00,0.17
0,22.76,5.06,0.00,4.30,15.24,0.00,0.00,2.06,26.11,0.00,0.00,5.09,14.79,0.00,16.44,2.37,0.00,0.00,0.00,0.00,15.05,1.41,0.00,3.32,15.50,0.00,1.64,1.33,3.54,0.00,0.00,0.16
0,22.04,5.06,0.00,4.16,15.58,0.00,0.00,2.16,25.12,0.00,0.00,4.58,14.47,0.00,13.70,2.32,0.00,0.00,0.00,0.00,14.66,1.41,0.00,3.22,15.32,0.00,1.64,1.31,3.51,0.00,0.00,0.16
0,21.96,6.33,0.00,4.15,15.82,0.00,0.00,2.26,24.44,0.00,0.00,4.22,14.77,0.00,13.70,2.39,0.00,0.00,0.00,0.00,15.22,1.41,0.00,3.47,14.98,0.00,1.64,1.28,3.75,0.00,0.00,0.18
0,22.58,6.33,0.00,4.36,16.37,0.00,0.00,2.44,24.36,0.00,0.00,4.15,15.30,0.00,15.07,2.47,0.00,0.00,0.00,0.00,15.00,1.41,0.00,3.39,15.19,0.00,1.64,1.34,3.71,0.00,0.00,0.18
0,23.83,7.59,0.00,4.69,16.75,0.00,0.00,2.55,23.31,0.00,0.00,3.84,14.71,0.00,12.33,2.31,0.00,0.00,0.00,0.00,15.45,1.41,0.00,3.48,15.18,0.00,1.64,1.29,3.72,0.00,0.00,0.18
0,23.90,7.59,0.00,4.97,17.01,0.00,0.00,2.61,23.58,0.00,0.00,3.97,14.94,0.00,12.33,2.33,0.00,0.00,0.00,0.00,14.69,0.00,0.00,3.07,15.12,0.00,1.64,1.26,3.87,0.00,0.00,0.19
0,22.98,7.59,0.00,4.80,17.46,0.00,0.00,2.69,24.07,0.00,0.00,4.21,14.86,0.00,12.33,2.35,0.00,0.00,0.00,0.00,14.55,0.00,0.00,3.01,14.99,0.00,1.64,1.28,3.71,0.00,0.00,0.17
0,23.13,7.59,0.00,4.79,17.44,0.00,0.00,2.77,23.99,0.00,0.00,4.17,14.75,0.00,10.96,2.37,0.00,0.00,0.00,0.00,14.35,0.00,0.00,3.02,14.57,0.00,0.00,1.21,3.81,0.00,0.00,0.18
0,23.10,7.59,0.00,4.79,17.34,0.00,0.00,2.74,24.36,0.00,0.00,4.30,14.87,0.00,10.96,2.37,0.00,0.00,0.00,0.00,13.62,0.00,0.00,2.84,14.62,0.00,0.00,1.23,3.74,0.00,0.00,0.17
0,22.41,7.59,0.00,4.77,17.65,0.00,0.00,2.81,26.27,0.00,0.00,4.90,14.94,0.00,10.96,2.43,0.00,0.00,0.00,0.00,13.54,0.00,0.00,2.85,14.81,0.00,0.00,1.25,3.59,0.00,0.00,0.17
0,21.71,7.59,0.00,4.53,17.30,0.00,0.00,2.78,25.62,0.00,0.00,4.73,15.58,0.00,12.33,2.58,0.00,0.00,0.00,0.00,13.17,0.00,0.00,2.78,14.93,0.00,1.64,1.27,3.54,0.00,0.00,0.17
0,21.60,7.59,0.00,4.55,16.69,0.00,0.00,2.63,25.46,0.00,0.00,4.73,15.47,0.00,10.96,2.56,0.00,0.00,0.00,0.00,12.61,0.00,0.00,2.60,15.21,0.00,1.64,1.28,3.52,0.00,0.00,0.16
0,21.34,7.59,0.00,4.48,17.11,0.00,0.00,2.73,25.17,0.00,0.00,4.64,15.44,0.00,10.96,2.51,0.00,0.00,0.00,0.00,12.61,0.00,0.00,2.59,15.77,0.00,1.64,1.42,3.48,0.00,0.00,0.16
0,23.00,10.13,2.00,5.16,16.91,0.00,0.00,2.48,24.12,0.00,0.00,4.42,15.41,0.00,10.96,2.52,0.00,0.00,0.00,0.00,12.72,0.00,0.00,2.54,16.35,0.00,1.64,1.45,3.46,0.00,0.00,0.16
0,23.37,11.39,2.00,5.49,17.10,0.00,0.00,2.52,24.70,0.00,0.00,4.64,15.64,0.00,12.33,2.62,0.00,0.00,0.00,0.00,12.91,0.00,0.00,2.66,16.84,0.00,4.92,1.55,3.42,0.00,0.00,0.15
0,22.03,8.86,2.00,5.08,17.57,0.00,0.00,2.58,24.57,0.00,0.00,4.55,15.66,0.00,12.33,2.63,0.00,0.00,0.00,0.00,12.43,0.00,0.00,2.52,16.81,0.00,4.92,1.57,3.33,0.00,0.00,0.15
0,21.87,8.86,2.00,5.05,17.42,0.00,0.00,2.57,24.85,0.00,0.00,4.51,15.82,0.00,12.33,2.68,0.00,0.00,0.00,0.00,12.47,0.00,0.00,2.47,16.86,0.00,4.92,1.60,3.44,0.00,0.00,0.16
0,21.85,8.86,2.00,5.04,17.62,0.00,0.00,2.63,23.97,0.00,0.00,4.37,15.93,0.00,12.33,2.67,0.00,0.00,0.00,0.00,12.21,0.00,0.00,2.35,17.43,0.00,4.92,1.67,3.38,0.00,0.00,0.15
0,21.16,8.86,2.00,4.90,17.81,0.00,0.00,2.72,23.58,0.00,0.00,4.32,16.48,0.00,13.70,2.90,0.00,0.00,0.00,0.00,12.20,0.00,0.00,2.34,17.30,0.00,4.92,1.72,3.40,0.00,0.00,0.15
0,21.08,7.59,2.00,5.03,18.06,0.00,0.00,2.86,23.98,0.00,0.00,4.46,16.35,0.00,15.07,2.86,0.00,0.00,0.00,0.00,12.15,0.00,0.00,2.42,18.04,0.00,6.56,1.88,3.41,0.00,0.00,0.15
0,19.62,7.59,2.00,4.49,17.92,0.00,0.00,2.85,25.19,0.00,0.00,4.85,16.38,0.00,13.70,2.83,0.00,0.00,0.00,0.00,11.42,0.00,0.00,2.14,18.09,0.00,6.56,1.88,3.41,0.00,0.00,0.15
0,19.15,7.59,2.00,4.33,18.05,0.00,0.00,2.84,25.27,0.00,0.00,4.83,15.93,0.00,12.33,2.73,0.00,0.00,0.00,0.00,11.13,0.00,0.00,2.07,18.02,0.00,6.56,1.86,3.42,0.00,0.00,0.15
0,19.63,7.59,2.00,4.47,17.50,0.00,0.00,2.74,25.56,0.00,0.00,4.85,16.16,0.00,13.70,2.81,0.00,0.00,0.00,0.00,11.26,0.00,0.00,2.11,17.92,0.00,6.56,1.82,3.32,0.00,0.00,0.14
0,19.66,6.33,2.00,4.45,17.32,0.00,0.00,2.75,26.19,0.00,0.00,4.92,16.44,0.00,15.07,2.95,0.00,0.00,0.00,0.00,11.35,0.00,0.00,2.13,18.17,0.00,6.56,1.85,3.08,0.00,0.00,0.12
0,18.74,6.33,2.00,4.14,16.20,0.00,0.00,2.31,25.61,0.00,0.00,4.78,15.99,0.00,13.70,2.86,0.00,0.00,0.00,0.00,11.33,0.00,0.00,2.00,18.20,0.00,6.56,1.81,3.02,0.00,0.00,0.11
0,18.05,6.33,2.00,3.99,15.89,0.00,0.00,2.22,26.04,0.00,0.00,4.94,16.10,0.00,13.70,2.83,0.00,0.00,0.00,0.00,11.13,0.00,0.00,1.97,18.39,0.00,6.56,1.82,3.14,0.00,0.00,0.12
0,17.67,5.06,2.00,3.53,15.60,0.00,0.00,2.19,25.62,0.00,0.00,4.79,16.01,0.00,13.70,2.79,0.00,0.00,0.00,0.00,11.09,0.00,0.00,1.93,18.40,0.00,6.56,1.81,2.96,0.00,0.00,0.11
0,17.74,5.06,2.00,3.59,15.97,0.00,0.00,2.31,24.34,0.00,0.00,4.41,16.11,0.00,13.70,2.88,0.00,0.00,0.00,0.00,10.75,0.00,0.00,1.92,19.10,0.00,8.20,2.03,2.99,0.00,0.00,0.11
0,19.26,6.33,2.00,4.54,15.59,0.00,0.00,2.16,25.17,0.00,0.00,4.76,16.04,0.00,13.70,2.82,0.00,0.00,0.00,0.00,10.87,0.00,0.00,1.90,19.36,0.00,8.20,2.08,2.95,0.00,0.00,0.11
0,19.16,6.33,2.00,4.48,16.35,0.00,0.00,2.35,24.41,0.00,0.00,4.63,16.09,0.00,13.70,2.87,0.00,0.00,0.00,0.00,11.37,0.00,0.00,2.00,19.68,0.00,9.84,2.10,2.97,0.00,0.00,0.11
0,19.60,6.33,2.00,4.55,16.11,0.00,0.00,2.30,23.38,0.00,0.00,4.36,15.76,0.00,12.33,2.81,0.00,0.00,0.00,0.00,11.76,0.00,0.00,2.05,20.38,0.00,9.84,2.20,3.11,0.00,0.00,0.12
0,20.31,6.33,2.00,4.77,17.12,0.00,0.00,2.53,23.74,0.00,0.00,4.58,15.85,0.00,10.96,2.85,0.00,0.00,0.00,0.00,12.16,0.00,0.00,2.18,20.51,0.00,9.84,2.25,3.24,0.00,0.00,0.13
0,20.44,6.33,2.00,4.73,17.32,0.00,0.00,2.57,24.67,0.00,0.00,5.04,15.65,0.00,10.96,2.75,0.00,0.00,0.00,0.00,12.16,0.00,0.00,2.16,20.60,0.00,9.84,2.28,3.17,0.00,0.00,0.12
0,21.53,7.59,2.00,5.08,17.22,0.00,0.00,2.58,24.33,0.00,0.00,4.96,15.63,0.00,10.96,2.74,0.00,0.00,0.00,0.00,11.94,0.00,0.00,2.09,20.09,0.00,9.84,2.16,3.16,0.00,0.00,0.12
0,21.38,6.33,0.00,5.15,16.77,0.00,0.00,2.47,25.27,0.00,0.00,5.16,15.55,0.00,9.59,2.65,0.00,0.00,0.00,0.00,12.25,0.00,0.00,2.25,19.87,0.00,9.84,2.13,3.22,0.00,0.00,0.12
0,19.79,2.53,0.00,4.12,16.36,0.00,0.00,2.35,25.52,0.00,0.00,5.17,15.26,0.00,8.22,2.51,0.00,0.00,0.00,0.00,11.82,0.00,0.00,2.16,19.18,0.00,6.56,2.01,3.26,0.00,0.00,0.12
0,20.95,3.80,0.00,4.61,16.14,0.00,0.00,2.31,24.76,0.00,0.00,4.94,14.98,0.00,8.22,2.38,0.00,0.00,0.00,0.00,12.03,0.00,0.00,2.17,19.21,0.00,6.56,1.99,3.44,0.00,0.00,0.13
0,21.58,5.06,0.00,4.72,16.47,0.00,0.00,2.38,24.83,0.00,0.00,4.99,15.09,0.00,9.59,2.32,0.00,0.00,0.00,0.00,12.04,0.00,0.00,2.15,19.37,0.00,6.56,1.97,3.35,0.00,0.00,0.12
0,23.06,8.86,0.00,5.36,16.45,0.00,0.00,2.37,24.63,0.00,0.00,4.98,15.06,0.00,8.22,2.33,0.00,0.00,0.00,0.00,12.01,0.00,0.00,2.13,19.08,0.00,6.56,1.91,3.33,0.00,0.00,0.12
0,23.48,8.86,0.00,5.58,16.31,0.00,0.00,2.32,24.51,0.00,0.00,4.82,14.25,0.00,6.85,2.13,0.00,0.00,0.00,0.00,12.29,0.00,0.00,2.21,18.82,0.00,6.56,1.88,3.53,0.00,0.00,0.14
0,23.05,8.86,0.00,5.44,15.99,0.00,0.00,2.23,25.25,0.00,0.00,5.05,14.44,0.00,6.85,2.10,0.00,0.00,0.00,0.00,12.37,0.00,0.00,2.20,18.18,0.00,4.92,1.73,3.45,0.00,0.00,0.14
0,23.92,10.13,0.00,5.87,15.64,0.00,0.00,2.13,23.61,0.00,0.00,4.55,14.56,0.00,8.22,2.18,0.00,0.00,0.00,0.00,12.70,0.00,0.00,2.24,17.64,0.00,4.92,1.67,3.46,0.00,0.00,0.14
0,24.60,10.13,0.00,5.90,15.60,0.00,0.00,2.13,23.21,0.00,0.00,4.53,14.58,0.00,8.22,2.19,0.00,0.00,0.00,0.00,12.79,0.00,0.00,2.26,17.10,0.00,4.92,1.59,3.63,0.00,0.00,0.15
0,25.40,11.39,0.00,6.14,16.08,0.00,0.00,2.42,22.67,0.00,0.00,4.41,14.79,0.00,8.22,2.26,0.00,0.00,0.00,0.00,13.15,0.00,0.00,2.30,17.86,0.00,6.56,1.68,3.63,0.00,0.00,0.15
0,25.79,11.39,0.00,6.24,16.12,0.00,0.00,2.45,22.25,0.00,0.00,4.34,14.44,0.00,6.85,2.07,0.00,0.00,0.00,0.00,12.73,0.00,0.00,2.09,18.49,0.00,8.20,1.71,3.66,0.00,0.00,0.15
0,26.67,11.39,0.00,6.55,16.34,0.00,0.00,2.45,22.75,0.00,0.00,4.66,14.89,0.00,8.22,2.12,0.00,0.00,0.00,0.00,12.45,0.00,0.00,2.07,18.20,0.00,8.20,1.72,3.62,0.00,0.00,0.15
0,27.37,11.39,0.00,6.64,16.52,0.00,0.00,2.45,22.56,0.00,0.00,4.65,15.02,0.00,8.22,2.15,0.00,0.00,0.00,0.00,12.09,0.00,0.00,2.01,17.77,0.00,8.20,1.68,3.46,0.00,0.00,0.13
0,27.31,11.39,0.00,6.80,16.37,0.00,0.00,2.46,22.60,0.00,0.00,4.57,14.59,0.00,8.22,2.07,0.00,0.00,0.00,0.00,12.18,0.00,0.00,2.02,17.76,0.00,8.20,1.74,3.55,0.00,0.00,0.14
0,27.50,11.39,0.00,6.86,15.87,0.00,0.00,2.38,23.81,2.56,0.00,5.04,14.72,0.00,9.59,2.03,0.00,0.00,0.00,0.00,12.17,0.00,0.00,2.03,17.43,0.00,6.56,1.65,3.56,0.00,0.00,0.14
0,26.55,10.13,0.00,6.45,15.55,0.00,0.00,2.30,22.88,2.56,0.00,4.58,14.76,0.00,10.96,2.04,0.00,0.00,0.00,0.00,12.09,0.00,0.00,2.00,16.87,0.00,6.56,1.46,3.42,0.00,0.00,0.13
0,26.09,10.13,0.00,5.80,14.92,0.00,0.00,2.09,23.47,2.56,0.00,4.79,14.74,0.00,12.33,2.05,0.00,0.00,0.00,0.00,11.88,0.00,0.00,1.97,16.78,0.00,4.92,1.48,3.47,0.00,0.00,0.14
0,26.51,10.13,0.00,6.05,14.97,0.00,0.00,2.15,23.53,2.56,0.00,4.97,14.94,0.00,13.70,2.05,0.00,0.00,0.00,0.00,11.53,0.00,0.00,1.91,16.18,0.00,4.92,1.45,3.42,0.00,0.00,0.13
0,25.79,10.13,0.00,5.80,14.52,0.00,0.00,2.04,23.43,2.56,0.00,4.76,14.98,0.00,13.70,2.02,0.00,0.00,0.00,0.00,11.23,0.00,0.00,1.84,15.99,0.00,3.28,1.37,3.37,0.00,0.00,0.13
0,25.97,10.13,0.00,5.83,14.90,0.00,0.00,2.08,22.47,2.56,0.00,4.49,15.16,0.00,13.70,2.11,0.00,0.00,0.00,0.00,11.03,0.00,0.00,1.75,15.54,0.00,3.28,1.27,3.43,0.00,0.00,0.13
0,25.27,8.86,0.00,5.65,14.79,0.00,0.00,2.04,22.45,2.56,0.00,4.39,15.00,0.00,13.70,2.07,0.00,0.00,0.00,0.00,11.31,0.00,0.00,1.81,15.78,0.00,3.28,1.31,3.43,0.00,0.00,0.13
0,25.17,8.86,0.00,5.69,14.77,0.00,0.00,2.06,22.12,2.56,0.00,4.34,15.34,0.00,15.07,2.17,0.00,0.00,0.00,0.00,11.22,0.00,0.00,1.72,15.65,0.00,3.28,1.28,3.29,0.00,0.00,0.13
0,25.24,8.86,0.00,5.66,14.88,0.00,0.00,2.06,21.63,2.56,0.00,4.22,15.32,0.00,16.44,2.27,0.00,0.00,0.00,0.00,10.99,0.00,0.00,1.61,15.74,0.00,3.28,1.31,3.36,0.00,0.00,0.13
0,24.47,7.59,0.00,5.50,15.49,0.00,0.00,2.22,21.76,2.56,0.00,4.20,15.51,0.00,16.44,2.28,0.00,0.00,0.00,0.00,10.87,0.00,0.00,1.62,15.48,0.00,3.28,1.28,3.29,0.00,0.00,0.13
0,23.83,6.33,0.00,5.24,15.64,0.00,0.00,2.33,22.16,2.56,0.00,4.26,15.74,0.00,17.81,2.34,0.00,0.00,0.00,0.00,10.83,0.00,0.00,1.53,15.49,0.00,4.92,1.29,3.29,0.00,0.00,0.13
0,23.57,5.06,0.00,5.31,14.84,0.00,0.00,2.15,23.03,2.56,0.00,4.50,15.55,0.00,17.81,2.30,0.00,0.00,0.00,0.00,11.02,0.00,0.00,1.55,15.93,0.00,4.92,1.34,3.49,0.00,0.00,0.14
0,23.63,5.06,0.00,5.17,14.85,0.00,0.00,2.19,23.85,2.56,0.00,4.68,16.25,0.00,19.18,2.54,0.00,0.00,0.00,0.00,11.11,0.00,0.00,1.52,15.83,0.00,4.92,1.31,3.26,0.00,0.00,0.13
0,24.28,5.06,0.00,5.28,15.39,0.00,0.00,2.28,23.29,2.56,0.00,4.64,16.00,0.00,17.81,2.50,0.00,0.00,0.00,0.00,11.12,0.00,0.00,1.59,15.53,0.00,4.92,1.30,3.26,0.00,0.00,0.13
0,23.07,3.80,0.00,4.78,15.46,0.00,0.00,2.31,23.40,2.56,0.00,4.63,15.74,0.00,16.44,2.45,0.00,0.00,0.00,0.00,10.91,0.00,0.00,1.49,15.88,0.00,4.92,1.33,3.14,0.00,0.00,0.12
0,23.12,3.80,0.00,4.85,16.03,0.00,0.00,2.42,23.90,5.13,0.00,5.04,15.94,0.00,16.44,2.47,0.00,0.00,0.00,0.00,11.23,0.00,0.00,1.57,16.72,0.00,4.92,1.41,3.08,0.00,0.00,0.11
0,22.22,2.53,0.00,4.72,15.35,0.00,0.00,2.19,25.02,5.13,0.00,5.57,15.33,0.00,15.07,2.28,0.00,0.00,0.00,0.00,10.82,0.00,0.00,1.54,16.77,0.00,6.56,1.49,3.02,0.00,0.00,0.11
0,21.61,2.53,0.00,4.48,15.05,0.00,0.00,2.01,25.29,5.13,0.00,5.72,15.66,0.00,16.44,2.37,0.00,0.00,0.00,0.00,10.72,0.00,0.00,1.53,16.39,0.00,4.92,1.47,3.03,0.00,0.00,0.11
0,21.25,2.53,0.00,4.33,15.40,0.00,0.00,2.12,25.50,5.13,0.00,5.84,15.52,0.00,15.07,2.35,0.00,0.00,0.00,0.00,10.96,0.00,0.00,1.61,16.24,0.00,4.92,1.46,3.03,0.00,0.00,0.11
0,21.83,3.80,0.00,4.57,15.61,0.00,0.00,2.18,25.63,5.13,0.00,5.83,15.56,0.00,15.07,2.39,0.00,0.00,0.00,0.00,11.11,0.00,0.00,1.59,16.66,0.00,4.92,1.50,3.12,0.00,0.00,0.12
0,21.00,3.80,0.00,4.40,15.47,0.00,0.00,2.14,27.28,5.13,0.00,6.42,15.75,0.00,15.07,2.41,0.00,0.00,0.00,0.00,11.14,0.00,0.00,1.61,16.52,0.00,4.92,1.44,3.08,0.00,0.00,0.12
0,21.51,5.06,0.00,4.59,15.66,0.00,0.00,2.18,26.43,2.56,0.00,6.10,15.79,0.00,13.70,2.45,0.00,0.00,0.00,0.00,11.16,0.00,0.00,1.64,16.40,0.00,4.92,1.40,3.04,0.00,0.00,0.12
0,21.80,5.06,0.00,4.62,16.19,0.00,0.00,2.26,26.33,2.56,0.00,6.17,15.81,0.00,13.70,2.47,0.00,0.00,0.00,0.00,11.27,0.00,0.00,1.69,16.64,0.00,4.92,1.44,3.10,0.00,0.00,0.12
0,22.05,5.06,0.00,4.71,16.18,0.00,0.00,2.28,26.86,2.56,0.00,6.37,15.84,0.00,13.70,2.44,0.00,0.00,0.00,0.00,11.58,0.00,0.00,1.74,16.53,0.00,4.92,1.44,3.06,0.00,0.00,0.11
0,21.71,5.06,0.00,4.61,16.26,0.00,0.00,2.31,27.56,2.56,0.00,6.47,15.96,0.00,15.07,2.47,0.00,0.00,0.00,0.00,11.65,0.00,0.00,1.72,16.75,0.00,4.92,1.45,3.03,0.00,0.00,0.11
0,21.46,5.06,0.00,4.52,16.28,0.00,0.00,2.33,27.28,2.56,0.00,6.30,15.86,0.00,15.07,2.43,0.00,0.00,0.00,0.00,11.60,0.00,0.00,1.72,16.44,0.00,4.92,1.42,3.14,0.00,0.00,0.12
0,21.49,5.06,0.00,4.46,15.88,0.00,0.00,2.29,27.64,2.56,0.00,6.39,15.41,0.00,15.07,2.28,0.00,0.00,0.00,0.00,11.56,0.00,0.00,1.70,17.03,0.00,4.92,1.50,3.10,0.00,0.00,0.12
0,21.58,5.06,0.00,4.51,16.28,0.00,0.00,2.44,26.92,2.56,0.00,6.18,15.43,0.00,15.07,2.28,0.00,0.00,0.00,0.00,11.62,0.00,0.00,1.79,17.40,0.00,6.56,1.52,3.19,0.00,0.00,0.12
0,21.48,5.06,0.00,4.46,16.28,0.00,0.00,2.44,26.50,2.56,0.00,5.98,14.93,0.00,13.70,2.19,0.00,0.00,0.00,0.00,11.65,0.00,0.00,1.79,17.64,0.00,6.56,1.55,3.33,0.00,0.00,0.13
0,21.40,5.06,0.00,4.60,16.44,0.00,0.00,2.48,27.21,2.56,0.00,6.14,14.39,0.00,10.96,2.01,0.00,0.00,0.00,0.00,11.47,0.00,0.00,1.75,17.70,0.00,6.56,1.55,3.25,0.00,0.00,0.12
0,22.14,5.06,0.00,4.90,16.66,0.00,0.00,2.58,27.66,2.56,0.00,6.29,14.74,0.00,12.33,2.14,0.00,0.00,0.00,0.00,11.48,0.00,0.00,1.75,17.79,0.00,6.56,1.57,3.23,0.00,0.00,0.13
0,22.82,7.59,0.00,5.15,15.80,0.00,0.00,2.35,27.77,2.56,0.00,6.40,14.88,0.00,10.96,2.39,0.00,0.00,0.00,0.00,11.56,0.00,0.00,1.86,17.91,0.00,6.56,1.61,3.34,0.00,0.00,0.14
0,21.85,5.06,0.00,4.64,16.25,0.00,0.00,2.39,26.87,2.56,0.00,6.18,14.84,0.00,12.33,2.44,0.00,0.00,0.00,0.00,11.12,0.00,0.00,1.79,17.90,0.00,6.56,1.56,3.11,0.00,0.00,0.12
0,21.39,5.06,0.00,4.48,16.17,0.00,0.00,2.32,26.77,2.56,0.00,6.23,14.30,0.00,12.33,2.24,0.00,0.00,0.00,0.00,10.62,0.00,0.00,1.68,18.02,0.00,6.56,1.60,3.13,0.00,0.00,0.12
0,20.97,5.06,0.00,4.44,16.13,0.00,0.00,2.29,26.82,2.56,0.00,6.40,14.41,0.00,12.33,2.22,0.00,0.00,0.00,0.00,10.21,0.00,0.00,1.62,18.37,0.00,6.56,1.61,3.27,0.00,0.00,0.13
0,20.86,5.06,0.00,4.40,17.86,0.00,0.00,2.90,27.27,2.56,0.00,6.82,14.49,0.00,13.70,2.27,0.00,0.00,0.00,0.00,10.48,0.00,0.00,1.68,19.16,0.00,6.56,1.79,3.25,0.00,0.00,0.13
0,21.63,5.06,0.00,4.56,17.40,0.00,0.00,2.81,26.48,0.00,0.00,6.51,14.91,0.00,15.07,2.48,0.00,0.00,0.00,0.00,10.30,0.00,0.00,1.63,18.94,0.00,6.56,1.78,3.28,0.00,0.00,0.13
0,21.33,5.06,0.00,4.49,17.09,0.00,0.00,2.74,26.35,0.00,0.00,6.33,15.40,0.00,16.44,2.70,0.00,0.00,0.00,0.00,10.38,0.00,0.00,1.64,17.96,0.00,3.28,1.59,3.26,0.00,0.00,0.13
0,21.72,6.33,0.00,4.57,17.36,0.00,0.00,2.82,26.09,0.00,0.00,6.19,14.92,0.00,15.07,2.60,0.00,0.00,0.00,0.00,10.29,0.00,0.00,1.62,18.22,0.00,3.28,1.57,3.25,0.00,0.00,0.13
0,21.99,7.59,0.00,4.84,18.05,0.00,0.00,3.09,25.55,0.00,0.00,5.87,14.97,0.00,15.07,2.66,0.00,0.00,0.00,0.00,9.92,0.00,0.00,1.54,19.11,0.00,4.92,1.78,3.25,0.00,0.00,0.13
0,21.70,6.33,0.00,4.77,17.71,0.00,0.00,3.04,25.93,0.00,0.00,6.32,14.50,0.00,15.07,2.53,0.00,0.00,0.00,0.00,9.96,0.00,0.00,1.57,19.01,0.00,4.92,1.76,3.14,0.00,0.00,0.12
0,22.31,6.33,0.00,4.89,17.86,0.00,0.00,3.10,24.56,0.00,0.00,5.87,14.62,0.00,16.44,2.61,0.00,0.00,0.00,0.00,10.37,0.00,0.00,1.70,19.96,0.00,9.84,1.95,3.11,0.00,0.00,0.12
0,21.70,6.33,0.00,4.79,18.12,0.00,0.00,3.13,23.94,0.00,0.00,5.73,14.89,0.00,17.81,2.75,0.00,0.00,0.00,0.00,10.45,0.00,0.00,1.71,20.16,0.00,9.84,1.97,3.17,0.00,0.00,0.12
0,21.06,5.06,0.00,4.47,18.23,0.00,0.00,3.16,25.30,0.00,0.00,6.25,15.40,0.00,17.81,2.89,0.00,0.00,0.00,0.00,10.42,0.00,0.00,1.61,20.13,0.00,9.84,1.95,3.16,0.00,0.00,0.12
0,21.12,5.06,0.00,4.50,18.48,0.00,0.00,3.24,24.35,0.00,0.00,5.93,15.24,0.00,16.44,2.84,0.00,0.00,0.00,0.00,10.27,0.00,0.00,1.67,20.68,0.00,11.48,2.08,3.18,0.00,0.00,0.13
0,21.93,5.06,0.00,4.76,18.26,0.00,0.00,3.20,24.14,0.00,0.00,6.11,15.23,0.00,13.70,3.03,0.00,0.00,0.00,0.00,10.36,0.00,0.00,1.69,21.15,0.00,11.48,2.16,3.35,0.00,0.00,0.14
0,22.40,6.33,0.00,5.17,18.26,0.00,0.00,3.20,24.97,0.00,0.00,6.51,15.64,0.00,13.70,3.28,0.00,0.00,0.00,0.00,10.33,0.00,0.00,1.67,20.87,0.00,11.48,2.15,3.24,0.00,0.00,0.13
0,22.00,6.33,0.00,5.06,18.09,0.00,0.00,3.20,25.64,0.00,0.00,6.90,15.85,0.00,13.70,3.33,0.00,0.00,0.00,0.00,10.07,0.00,0.00,1.65,20.32,0.00,11.48,2.08,3.26,0.00,0.00,0.13
0,22.87,6.33,0.00,5.48,17.69,0.00,0.00,3.05,25.71,0.00,0.00,6.81,15.91,0.00,13.70,3.36,0.00,0.00,0.00,0.00,10.21,0.00,0.00,1.62,21.09,0.00,13.11,2.22,3.28,0.00,0.00,0.13
0,22.47,6.33,0.00,5.24,17.79,0.00,0.00,3.06,26.10,0.00,0.00,7.07,15.89,0.00,13.70,3.31,0.00,0.00,0.00,0.00,10.22,0.00,0.00,1.70,21.33,0.00,14.75,2.27,3.15,0.00,0.00,0.12
0,22.72,6.33,0.00,5.22,18.17,0.00,0.00,3.15,25.73,0.00,0.00,7.00,16.55,0.00,15.07,3.56,0.00,0.00,0.00,0.00,10.67,0.00,0.00,1.78,21.06,0.00,14.75,2.25,3.20,0.00,0.00,0.12
0,22.34,6.33,0.00,5.04,18.25,0.00,0.00,3.18,25.97,0.00,0.00,7.07,16.41,0.00,15.07,3.50,0.00,0.00,0.00,0.00,11.08,0.00,0.00,1.90,21.60,0.00,14.75,2.31,3.34,0.00,0.00,0.13
0,21.31,3.80,0.00,4.46,18.19,0.00,0.00,3.18,25.71,0.00,0.00,6.86,15.78,0.00,13.70,3.17,0.00,0.00,0.00,0.00,11.28,0.00,0.00,1.95,20.84,0.00,13.11,2.24,3.25,0.00,0.00,0.12
0,20.94,3.80,0.00,4.42,17.80,0.00,0.00,3.13,25.80,0.00,0.00,6.94,15.60,0.00,12.33,3.08,0.00,0.00,0.00,0.00,11.19,0.00,0.00,1.84,20.89,0.00,13.11,2.27,3.22,0.00,0.00,0.12
0,20.73,3.80,0.00,4.36,18.11,0.00,0.00,3.21,25.96,0.00,0.00,7.02,15.63,0.00,10.96,3.14,0.00,0.00,0.00,0.00,11.63,0.00,0.00,1.90,20.29,0.00,13.11,2.20,3.24,0.00,0.00,0.12
0,21.59,3.80,0.00,4.44,17.53,0.00,0.00,3.08,25.93,0.00,0.00,6.97,15.64,0.00,10.96,3.17,0.00,0.00,0.00,0.00,11.83,0.00,0.00,2.03,20.22,0.00,13.11,2.19,3.08,0.00,0.00,0.11
0,22.50,3.80,0.00,4.72,16.45,0.00,0.00,2.57,25.69,0.00,0.00,6.57,15.49,0.00,9.59,3.14,0.00,0.00,0.00,0.00,11.83,0.00,0.00,2.08,19.79,0.00,13.11,2.08,3.12,0.00,0.00,0.11
0,21.98,3.80,0.00,4.71,16.69,0.00,0.00,2.70,26.01,0.00,0.00,6.74,15.40,0.00,9.59,3.02,0.00,0.00,0.00,0.00,11.68,0.00,0.00,2.06,19.31,0.00,13.11,2.04,3.14,0.00,0.00,0.11
0,21.95,3.80,0.00,4.70,17.02,0.00,0.00,2.73,26.37,0.00,0.00,6.72,15.17,0.00,8.22,2.89,0.00,0.00,0.00,0.00,11.45,0.00,0.00,1.99,19.87,0.00,13.11,2.07,3.22,0.00,0.00,0.11
0,22.53,3.80,0.00,4.83,17.36,0.00,0.00,2.89,25.85,0.00,0.00,6.62,15.25,0.00,8.22,2.94,0.00,0.00,0.00,0.00,11.45,0.00,0.00,2.01,20.36,0.00,14.75,2.18,3.18,0.00,0.00,0.11
0,22.24,2.53,0.00,4.49,16.52,0.00,0.00,2.55,25.84,0.00,0.00,6.57,15.19,0.00,8.22,2.93,0.00,0.00,0.00,0.00,11.47,0.00,0.00,2.00,19.77,0.00,13.11,2.05,3.34,0.00,0.00,0.12
0,22.41,3.80,0.00,4.77,16.38,0.00,0.00,2.50,25.07,0.00,0.00,6.05,15.40,0.00,8.22,3.01,0.00,0.00,0.00,0.00,11.14,0.00,0.00,1.93,19.73,0.00,13.11,1.94,3.33,0.00,0.00,0.12
0,21.92,3.80,0.00,4.59,16.04,0.00,0.00,2.40,25.19,0.00,0.00,6.07,15.04,0.00,6.85,2.90,0.00,0.00,0.00,0.00,10.99,0.00,0.00,1.76,18.91,0.00,9.84,1.81,3.45,0.00,0.00,0.13
0,21.79,3.80,0.00,4.52,16.28,0.00,0.00,2.47,25.41,0.00,0.00,6.10,14.69,0.00,5.48,2.77,0.00,0.00,0.00,0.00,11.25,0.00,0.00,1.86,19.46,0.00,13.11,1.90,3.40,0.00,0.00,0.13
0,21.92,3.80,0.00,4.58,16.18,0.00,0.00,2.47,24.26,0.00,0.00,5.47,13.99,0.00,4.11,2.50,0.00,0.00,0.00,0.00,11.00,0.00,0.00,1.83,19.17,0.00,13.11,1.87,3.38,0.00,0.00,0.13
0,22.53,6.33,0.00,4.82,16.27,0.00,0.00,2.40,24.04,0.00,0.00,5.46,14.58,0.00,5.48,2.73,0.00,0.00,0.00,0.00,10.94,0.00,0.00,1.80,19.30,0.00,13.11,1.91,3.37,0.00,0.00,0.13
0,22.63,8.86,0.00,4.93,16.00,0.00,0.00,2.34,23.72,0.00,0.00,4.98,14.57,0.00,5.48,2.54,0.00,0.00,0.00,0.00,11.58,0.00,0.00,2.01,18.86,0.00,13.11,1.83,3.24,0.00,0.00,0.12
0,22.02,7.59,0.00,4.52,16.60,0.00,0.00,2.45,23.18,0.00,0.00,4.64,14.07,0.00,6.85,2.26,0.00,0.00,0.00,0.00,11.66,0.00,0.00,2.01,18.92,0.00,13.11,1.84,3.24,0.00,0.00,0.12
0,22.54,7.59,0.00,4.62,16.84,0.00,0.00,2.50,21.97,0.00,0.00,4.24,13.91,0.00,6.85,2.20,0.00,0.00,0.00,0.00,12.25,0.00,0.00,2.14,19.42,0.00,13.11,1.91,3.18,0.00,0.00,0.12
0,21.95,7.59,0.00,4.32,16.61,0.00,0.00,2.42,22.09,0.00,0.00,4.31,14.19,0.00,8.22,2.25,0.00,0.00,0.00,0.00,12.03,0.00,0.00,2.14,18.91,0.00,9.84,1.85,3.06,0.00,0.00,0.11
0,22.38,7.59,0.00,4.51,16.86,0.00,0.00,2.48,22.00,0.00,0.00,4.15,14.12,0.00,8.22,2.27,0.00,0.00,0.00,0.00,11.68,0.00,0.00,2.00,18.15,0.00,8.20,1.72,3.01,0.00,0.00,0.11
0,21.67,7.59,0.00,4.43,16.97,0.00,0.00,2.44,21.80,0.00,0.00,4.09,13.79,0.00,8.22,2.06,0.00,0.00,0.00,0.00,12.07,0.00,0.00,2.21,17.91,0.00,8.20,1.69,3.18,0.00,0.00,0.13
0,21.34,7.59,0.00,4.36,16.74,0.00,0.00,2.32,21.58,0.00,0.00,4.09,13.35,0.00,6.85,1.97,0.00,0.00,0.00,0.00,11.77,0.00,0.00,2.11,17.71,0.00,8.20,1.65,3.05,0.00,0.00,0.12
0,21.79,8.86,0.00,4.47,17.13,0.00,0.00,2.42,21.64,0.00,0.00,4.15,13.60,0.00,8.22,2.05,0.00,0.00,0.00,0.00,11.51,0.00,0.00,2.06,17.90,0.00,8.20,1.65,3.07,0.00,0.00,0.12
0,22.44,8.86,0.00,4.59,17.25,0.00,0.00,2.42,21.41,0.00,0.00,4.08,13.89,0.00,8.22,2.18,0.00,0.00,0.00,0.00,11.40,0.00,0.00,1.98,17.68,0.00,8.20,1.61,3.11,0.00,0.00,0.12
0,21.82,8.86,0.00,4.50,17.24,0.00,0.00,2.39,21.56,0.00,0.00,4.22,13.64,0.00,8.22,2.14,0.00,0.00,0.00,0.00,11.62,0.00,0.00,2.02,18.09,0.00,8.20,1.63,3.11,0.00,0.00,0.12
0,21.74,8.86,0.00,4.44,17.06,0.00,0.00,2.36,21.79,0.00,0.00,4.16,14.01,0.00,9.59,2.23,0.00,0.00,0.00,0.00,10.84,0.00,0.00,1.80,17.98,0.00,8.20,1.62,3.14,0.00,0.00,0.13
0,21.16,8.86,0.00,4.40,16.60,0.00,0.00,2.29,22.32,0.00,0.00,4.30,14.39,0.00,10.96,2.27,0.00,0.00,0.00,0.00,10.48,0.00,0.00,1.69,18.00,0.00,8.20,1.61,3.26,0.00,0.00,0.13
0,20.76,8.86,0.00,4.20,16.22,0.00,0.00,2.18,22.14,0.00,0.00,4.41,14.20,0.00,9.59,2.27,0.00,0.00,0.00,0.00,10.87,0.00,0.00,1.79,17.89,0.00,8.20,1.60,3.22,0.00,0.00,0.13
0,20.58,8.86,0.00,4.15,16.26,0.00,0.00,2.17,22.77,0.00,0.00,4.82,14.36,0.00,10.96,2.50,0.00,0.00,0.00,0.00,11.44,0.00,0.00,1.94,17.40,0.00,8.20,1.57,3.06,0.00,0.00,0.13
0,20.98,10.13,0.00,4.20,16.54,0.00,0.00,2.27,22.75,0.00,0.00,4.82,14.51,0.00,12.33,2.58,0.00,0.00,0.00,0.00,11.36,0.00,0.00,1.90,16.62,0.00,6.56,1.47,3.02,0.00,0.00,0.13
0,21.00,10.13,0.00,4.23,16.46,0.00,0.00,2.21,22.54,0.00,0.00,4.81,15.10,0.00,13.70,2.76,0.00,0.00,0.00,0.00,11.29,0.00,0.00,1.91,16.38,0.00,6.56,1.42,2.95,0.00,0.00,0.12
0,20.66,8.86,0.00,3.96,16.91,0.00,0.00,2.35,22.81,0.00,0.00,4.91,15.24,0.00,15.07,2.78,0.00,0.00,0.00,0.00,11.59,0.00,0.00,1.98,16.63,0.00,6.56,1.46,2.98,0.00,0.00,0.12
0,20.91,8.86,0.00,4.03,17.24,0.00,0.00,2.45,22.39,0.00,0.00,4.94,15.69,0.00,16.44,2.95,0.00,0.00,0.00,0.00,11.57,0.00,0.00,2.00,17.32,0.00,6.56,1.60,2.96,0.00,0.00,0.11
0,21.26,8.86,0.00,4.13,16.45,0.00,0.00,2.33,22.39,0.00,0.00,4.98,16.00,0.00,16.44,3.17,0.00,0.00,0.00,0.00,11.13,0.00,0.00,1.95,16.48,0.00,3.28,1.48,2.89,0.00,0.00,0.11
0,21.26,8.86,0.00,4.20,16.37,0.00,0.00,2.25,23.45,0.00,0.00,5.37,16.78,0.00,19.18,3.59,0.00,0.00,0.00,0.00,11.63,0.00,0.00,2.03,16.77,0.00,3.28,1.51,3.05,0.00,0.00,0.11
0,19.93,6.33,0.00,3.76,16.37,0.00,0.00,2.27,24.10,0.00,0.00,5.75,16.04,0.00,17.81,3.37,0.00,0.00,0.00,0.00,11.28,0.00,0.00,1.98,15.96,0.00,1.64,1.33,3.03,0.00,0.00,0.11
0,19.84,6.33,0.00,3.73,16.31,0.00,0.00,2.23,23.90,0.00,0.00,5.85,15.91,0.00,17.81,3.35,0.00,0.00,0.00,0.00,10.59,0.00,0.00,1.76,15.95,0.00,1.64,1.31,2.99,0.00,0.00,0.11
0,19.33,3.80,0.00,3.46,15.94,0.00,0.00,2.18,24.02,0.00,0.00,5.84,16.23,0.00,19.18,3.49,0.00,0.00,0.00,0.00,10.35,0.00,0.00,1.73,16.49,0.00,3.28,1.36,3.17,0.00,0.00,0.12
0,19.04,3.80,0.00,3.39,15.84,0.00,0.00,2.16,24.46,0.00,0.00,5.96,16.20,0.00,19.18,3.49,0.00,0.00,0.00,0.00,10.72,0.00,0.00,1.85,16.34,0.00,4.92,1.34,3.13,0.00,0.00,0.12
0,18.91,3.80,0.00,3.44,16.50,0.00,0.00,2.23,24.51,0.00,0.00,6.12,15.91,0.00,17.81,3.47,0.00,0.00,0.00,0.00,10.38,0.00,0.00,1.76,16.62,0.00,4.92,1.37,3.12,0.00,0.00,0.12
0,19.09,3.80,0.00,3.44,15.84,0.00,0.00,2.07,24.50,0.00,0.00,6.24,16.39,0.00,19.18,3.62,0.00,0.00,0.00,0.00,10.45,0.00,0.00,1.76,16.71,0.00,4.92,1.30,3.29,0.00,0.00,0.14
0,19.67,6.33,0.00,3.66,15.82,0.00,0.00,2.09,26.41,0.00,0.00,7.27,16.16,0.00,17.81,3.61,0.00,0.00,0.00,0.00,9.88,0.00,0.00,1.50,17.22,0.00,4.92,1.37,3.18,0.00,0.00,0.12
0,20.04,6.33,0.00,3.80,15.76,0.00,0.00,2.09,26.85,0.00,0.00,7.42,16.03,0.00,17.81,3.57,0.00,0.00,0.00,0.00,9.90,0.00,0.00,1.56,17.21,0.00,4.92,1.40,3.08,0.00,0.00,0.12
0,19.42,5.06,0.00,3.62,16.15,0.00,0.00,2.22,27.13,0.00,0.00,7.56,16.05,0.00,16.44,3.65,0.00,0.00,0.00,0.00,10.24,0.00,0.00,1.63,17.98,0.00,6.56,1.54,3.15,0.00,0.00,0.12
0,18.96,5.06,0.00,3.50,15.68,0.00,0.00,2.11,27.54,0.00,0.00,7.73,15.92,0.00,17.81,3.67,0.00,0.00,0.00,0.00,10.37,0.00,0.00,1.65,17.81,0.00,6.56,1.54,3.12,0.00,0.00,0.12
0,19.01,5.06,0.00,3.44,15.97,0.00,0.00,2.12,28.01,0.00,0.00,7.83,16.34,0.00,19.18,3.76,0.00,0.00,0.00,0.00,10.39,0.00,0.00,1.63,18.23,0.00,6.56,1.56,3.16,0.00,0.00,0.12
0,18.21,5.06,0.00,3.34,16.59,0.00,0.00,2.31,27.31,0.00,0.00,7.52,16.26,0.00,19.18,3.77,0.00,0.00,0.00,0.00,10.36,0.00,0.00,1.66,18.38,0.00,6.56,1.69,3.32,0.00,0.00,0.13
0,18.39,5.06,0.00,3.34,17.14,0.00,0.00,2.41,26.69,0.00,0.00,7.32,16.35,0.00,19.18,3.85,0.00,0.00,0.00,0.00,10.40,0.00,0.00,1.65,18.99,0.00,6.56,1.74,3.22,0.00,0.00,0.12
0,18.83,6.33,0.00,3.40,17.07,0.00,0.00,2.46,26.86,0.00,0.00,7.36,16.41,0.00,20.55,3.93,0.00,0.00,0.00,0.00,10.46,0.00,0.00,1.61,18.93,0.00,6.56,1.71,3.32,0.00,0.00,0.13
0,19.59,7.59,0.00,3.71,16.86,0.00,0.00,2.42,26.72,0.00,0.00,6.84,16.08,0.00,19.18,3.71,0.00,0.00,0.00,0.00,10.20,0.00,0.00,1.61,18.84,0.00,6.56,1.69,3.44,0.00,0.00,0.13
0,19.93,6.33,0.00,3.84,16.49,0.00,0.00,2.27,27.04,0.00,0.00,7.07,16.22,0.00,19.18,3.85,0.00,0.00,0.00,0.00,10.75,0.00,0.00,1.70,19.29,0.00,6.56,1.74,3.61,0.00,0.00,0.15
0,20.28,6.33,0.00,4.07,16.55,0.00,0.00,2.34,27.33,0.00,0.00,7.11,15.83,0.00,17.81,3.59,0.00,0.00,0.00,0.00,11.11,0.00,0.00,1.88,20.02,0.00,6.56,1.85,3.64,0.00,0.00,0.15
0,19.76,5.06,0.00,3.89,16.42,0.00,0.00,2.23,27.29,0.00,0.00,7.11,15.54,0.00,16.44,3.53,0.00,0.00,0.00,0.00,11.34,0.00,0.00,1.93,19.85,0.00,6.56,1.85,3.70,0.00,0.00,0.16
0,20.33,6.33,0.00,4.13,16.36,0.00,0.00,2.23,27.41,0.00,0.00,7.09,15.08,0.00,15.07,3.37,0.00,0.00,0.00,0.00,11.51,0.00,0.00,1.98,19.51,0.00,4.92,1.81,3.57,0.00,0.00,0.15
0,20.65,6.33,0.00,4.17,16.99,0.00,0.00,2.36,27.27,0.00,0.00,7.10,14.65,0.00,15.07,3.13,0.00,0.00,0.00,0.00,11.79,0.00,0.00,1.99,19.82,0.00,6.56,1.88,3.60,0.00,0.00,0.15
0,20.76,6.33,0.00,4.12,17.59,0.00,0.00,2.61,26.76,0.00,0.00,6.89,14.31,0.00,13.70,2.79,0.00,0.00,0.00,0.00,11.34,0.00,0.00,1.89,19.97,0.00,6.56,1.93,3.48,0.00,0.00,0.14
0,22.14,7.59,0.00,4.44,17.77,0.00,0.00,2.66,26.02,0.00,0.00,6.40,14.77,0.00,15.07,2.93,0.00,0.00,0.00,0.00,11.71,0.00,0.00,2.02,20.13,0.00,6.56,1.92,3.49,0.00,0.00,0.14
0,22.28,7.59,0.00,4.60,17.66,0.00,0.00,2.67,25.96,0.00,0.00,6.57,15.47,0.00,16.44,3.08,0.00,0.00,0.00,0.00,11.90,0.00,0.00,2.05,20.09,0.00,6.56,1.93,3.70,0.00,0.00,0.16
0,21.80,7.59,0.00,4.51,17.89,0.00,0.00,2.71,26.24,0.00,0.00,6.48,14.88,0.00,13.70,2.90,0.00,0.00,0.00,0.00,12.48,0.00,0.00,2.25,20.09,0.00,4.92,1.91,3.60,0.00,0.00,0.15
0,21.29,7.59,0.00,4.39,17.49,0.00,0.00,2.60,26.04,0.00,0.00,6.66,14.96,0.00,13.70,2.94,0.00,0.00,0.00,0.00,11.92,0.00,0.00,2.14,19.62,0.00,3.28,1.87,3.56,0.00,0.00,0.15
0,21.07,7.59,0.00,4.26,17.70,0.00,0.00,2.66,26.29,0.00,0.00,6.76,15.68,0.00,15.07,3.13,0.00,0.00,0.00,0.00,12.33,0.00,0.00,2.16,19.50,0.00,3.28,1.86,3.69,0.00,0.00,0.16
0,20.43,7.59,0.00,4.02,17.31,0.00,0.00,2.65,26.91,0.00,0.00,7.16,15.67,0.00,16.44,3.05,0.00,0.00,0.00,0.00,12.48,0.00,0.00,2.28,18.86,0.00,3.28,1.79,3.54,0.00,0.00,0.14
0,21.19,7.59,0.00,4.28,16.74,0.00,0.00,2.55,25.65,0.00,0.00,6.51,15.71,0.00,16.44,3.08,0.00,0.00,0.00,0.00,12.91,0.00,0.00,2.38,18.90,0.00,3.28,1.85,3.56,0.00,0.00,0.15
0,20.86,6.33,0.00,4.25,16.84,0.00,0.00,2.55,25.52,0.00,0.00,6.38,16.07,0.00,16.44,3.24,0.00,0.00,0.00,0.00,12.76,0.00,0.00,2.33,18.63,0.00,3.28,1.78,3.55,0.00,0.00,0.14
0,21.83,7.59,0.00,4.85,16.82,0.00,0.00,2.62,25.63,0.00,0.00,6.31,16.30,0.00,17.81,3.19,0.00,0.00,0.00,0.00,13.20,0.00,0.00,2.50,18.07,0.00,1.64,1.67,3.51,0.00,0.00,0.14
1,23.16,8.86,0.00,5.64,16.53,0.00,0.00,2.46,25.02,0.00,0.00,6.10,16.39,0.00,19.18,3.11,0.00,0.00,0.00,0.00,13.54,0.00,0.00,2.59,18.61,0.00,1.64,1.72,3.70,0.00,0.00,0.16
1,27.48,12.66,4.00,9.65,16.92,0.00,0.00,2.57,25.81,2.56,0.00,6.61,16.32,0.00,17.81,3.03,0.00,0.00,0.00,0.00,13.88,0.00,0.00,2.78,25.36,9.38,9.84,5.58,4.13,0.00,0.00,0.21
1,31.67,16.46,6.00,13.75,16.86,0.00,0.00,2.53,27.38,5.13,0.00,7.51,17.24,0.00,19.18,3.32,0.00,0.00,0.00,0.00,14.59,0.00,0.00,3.12,30.68,15.63,16.39,8.26,4.36,0.00,0.00,0.24
1,37.39,20.25,10.00,20.15,17.89,0.00,0.00,2.90,28.46,5.13,0.00,7.90,18.33,0.00,19.18,4.01,0.00,0.00,0.00,0.00,17.23,2.82,1.96,4.99,38.06,25.00,21.31,16.10,4.91,0.00,0.00,0.33
1,41.48,24.05,16.00,24.74,18.88,0.00,0.00,3.71,29.48,7.69,0.00,8.40,18.57,0.00,21.92,3.94,0.00,0.00,0.00,0.00,18.31,5.63,1.96,6.11,48.98,37.50,27.87,28.10,5.56,0.00,0.00,0.44
1,43.24,26.58,20.00,25.80,19.72,0.00,0.00,3.91,29.36,7.69,0.00,8.47,20.13,0.00,26.03,4.70,0.00,0.00,0.00,0.00,19.17,8.45,1.96,6.87,55.17,40.63,34.43,31.78,5.87,0.00,0.00,0.49
1,49.10,31.65,26.00,32.36,20.03,0.00,0.00,4.08,30.36,10.26,0.00,8.79,20.37,0.00,26.03,4.57,0.00,0.00,0.00,0.00,20.35,8.45,1.96,7.50,61.21,50.00,40.98,34.98,6.25,0.00,0.00,0.53
1,51.22,35.44,28.00,34.36,20.15,0.00,0.00,4.15,30.80,12.82,0.00,9.57,20.32,0.00,26.03,4.61,0.00,0.00,0.00,0.00,21.03,9.86,1.96,7.99,66.71,56.25,44.26,40.34,6.94,0.00,0.00,0.67
1,52.10,36.71,28.00,34.79,20.10,0.00,0.00,4.10,31.93,12.82,0.00,9.88,21.32,0.00,28.77,4.95,0.00,0.00,0.00,0.00,21.90,11.27,1.96,8.41,70.32,62.50,49.18,43.66,7.14,0.00,0.00,0.70
1,54.97,41.77,34.00,36.23,20.20,0.00,0.00,4.12,32.49,12.82,0.00,10.04,21.88,0.00,28.77,5.08,0.00,0.00,0.00,0.00,22.31,11.27,1.96,8.70,75.91,75.00,55.74,46.51,7.57,0.00,0.00,0.75
1,59.04,46.84,40.00,38.60,19.85,0.00,0.00,4.06,33.27,12.82,0.00,10.12,22.51,0.00,32.88,5.19,0.00,0.00,0.00,0.00,22.97,12.68,1.96,8.87,78.90,78.12,59.02,48.10,7.88,0.00,0.00,0.77
1,63.04,51.90,46.00,41.87,19.34,0.00,0.00,3.82,33.86,12.82,0.00,10.27,23.54,0.00,34.25,5.64,0.00,0.00,0.00,0.00,24.17,14.08,1.96,10.18,82.56,84.37,62.30,50.39,8.10,0.00,0.00,0.79
1,66.45,58.23,50.00,44.82,19.34,0.00,0.00,3.90,33.92,12.82,0.00,10.36,23.82,0.00,35.62,5.74,0.00,0.00,0.00,0.00,25.16,14.08,1.96,10.53,84.58,87.50,65.57,51.07,8.42,0.00,0.00,0.83
1,67.35,60.76,50.00,46.13,19.71,0.00,0.00,4.07,33.59,12.82,0.00,10.31,23.84,0.00,35.62,5.77,0.00,0.00,0.00,0.00,26.51,15.49,1.96,11.22,85.90,87.50,67.21,51.31,8.40,0.00,0.00,0.82
1,70.06,62.03,50.00,47.92,19.38,0.00,0.00,3.98,33.73,12.82,0.00,10.36,23.88,0.00,38.36,5.75,0.00,0.00,0.00,0.00,26.29,15.49,1.96,11.24,90.60,93.75,73.77,53.94,8.85,0.00,0.00,0.87
1,73.94,65.82,54.00,51.56,19.65,0.00,0.00,4.10,34.50,12.82,0.00,10.61,24.64,0.00,39.73,5.87,0.00,0.00,0.00,0.00,26.67,15.49,1.96,11.22,94.70,103.12,80.33,55.90,9.01,0.00,0.00,0.88
1,76.26,69.62,54.00,52.52,19.62,0.00,0.00,4.08,34.21,12.82,0.00,10.21,24.65,0.00,39.73,5.89,0.00,0.00,0.00,0.00,26.89,15.49,1.96,11.30,98.32,109.37,85.25,57.95,9.05,0.00,0.00,0.89
1,78.66,72.15,56.00,54.31,19.48,0.00,0.00,4.07,33.34,12.82,0.00,9.81,24.62,0.00,38.36,5.88,0.00,0.00,0.00,0.00,26.64,15.49,1.96,11.19,101.65,112.50,93.44,58.85,9.31,0.00,0.00,0.91
1,79.74,74.68,56.00,55.38,20.23,0.00,0.00,4.23,34.08,12.82,0.00,9.95,24.38,0.00,38.36,5.80,0.00,0.00,0.00,0.00,27.21,15.49,1.96,11.32,107.04,118.75,98.36,62.83,9.48,0.00,0.00,0.93
1,79.91,74.68,56.00,55.40,20.29,0.00,0.00,4.26,34.21,12.82,0.00,9.77,24.39,0.00,39.73,5.71,0.00,0.00,0.00,0.00,27.16,15.49,1.96,11.32,109.26,121.87,101.64,65.13,9.59,0.00,0.00,0.96
1,79.50,74.68,56.00,55.19,20.06,0.00,0.00,4.18,35.08,12.82,0.00,10.40,24.39,0.00,41.10,5.82,0.00,0.00,0.00,0.00,27.18,15.49,1.96,11.34,110.11,121.87,104.92,65.24,9.93,0.00,0.00,1.00
1,78.22,72.15,56.00,54.41,19.80,0.00,0.00,4.13,35.24,12.82,0.00,10.56,24.31,0.00,39.73,5.86,0.00,0.00,0.00,0.00,26.80,15.49,1.96,11.18,110.49,121.87,104.92,65.29,9.81,0.00,0.00,0.99
1,76.95,73.42,54.00,52.66,19.81,0.00,0.00,4.10,33.34,10.26,0.00,9.72,24.37,0.00,39.73,5.92,0.00,0.00,0.00,0.00,26.07,15.49,1.96,11.00,105.32,112.50,101.64,62.25,9.52,0.00,0.00,0.95
1,75.01,70.89,56.00,48.97,19.91,0.00,0.00,4.17,32.18,7.69,0.00,9.02,24.01,0.00,36.99,5.82,0.00,0.00,0.00,0.00,25.55,15.49,1.96,10.65,100.72,106.25,100.00,59.55,9.40,0.00,0.00,0.94
1,71.03,70.89,52.00,43.29,18.55,0.00,0.00,3.57,31.34,7.69,0.00,8.57,23.52,0.00,36.99,5.53,0.00,0.00,0.00,0.00,25.15,14.08,1.96,10.50,94.92,100.00,96.72,52.19,9.05,0.00,0.00,0.86
1,67.49,67.09,46.00,39.62,18.19,0.00,0.00,3.11,30.36,5.13,0.00,7.95,22.82,0.00,32.88,5.42,0.00,0.00,0.00,0.00,23.91,11.27,0.00,8.55,87.71,96.87,98.36,42.20,8.56,0.00,0.00,0.78
1,67.59,67.09,44.00,39.92,17.81,0.00,0.00,3.00,30.04,5.13,0.00,7.88,21.68,0.00,30.14,4.78,0.00,0.00,0.00,0.00,22.96,9.86,0.00,7.93,81.41,87.50,93.44,36.91,8.55,0.00,0.00,0.76
1,64.11,65.82,38.00,36.04,16.77,0.00,0.00,2.78,30.44,5.13,0.00,7.77,21.07,0.00,30.14,4.52,0.00,0.00,0.00,0.00,21.86,8.45,0.00,7.44,80.32,90.62,91.80,36.31,8.30,0.00,0.00,0.75
1,62.43,65.82,38.00,33.09,16.48,0.00,0.00,2.63,28.51,0.00,0.00,6.50,20.89,0.00,31.51,4.40,0.00,0.00,0.00,0.00,21.24,7.04,0.00,6.77,73.25,81.25,88.52,29.42,7.47,0.00,0.00,0.58
1,63.84,67.09,40.00,34.77,16.95,0.00,0.00,2.79,28.29,0.00,0.00,6.66,20.29,0.00,30.14,4.30,0.00,0.00,0.00,0.00,20.47,5.63,0.00,6.36,69.44,71.87,90.16,26.06,7.32,0.00,0.00,0.57
1,62.33,64.56,36.00,34.17,16.53,0.00,0.00,2.68,27.70,0.00,0.00,6.39,20.10,0.00,30.14,4.22,0.00,0.00,0.00,0.00,20.22,5.63,0.00,6.40,65.27,59.38,88.52,23.96,7.44,0.00,0.00,0.58
1,61.67,63.29,32.00,34.69,17.12,0.00,0.00,2.80,27.67,0.00,0.00,6.37,19.45,0.00,26.03,4.15,0.00,0.00,0.00,0.00,20.42,5.63,0.00,6.51,62.66,56.25,83.61,22.39,7.29,0.00,0.00,0.56
1,60.07,62.03,30.00,32.96,16.93,0.00,0.00,2.72,28.72,0.00,0.00,6.90,18.20,0.00,23.29,3.78,0.00,0.00,0.00,0.00,18.79,2.82,0.00,5.04,60.33,53.13,83.61,20.67,7.39,0.00,0.00,0.56
1,56.74,59.49,28.00,29.92,16.92,0.00,0.00,2.72,28.60,0.00,0.00,6.65,17.77,0.00,20.55,3.51,0.00,0.00,0.00,0.00,18.17,2.82,0.00,4.71,58.85,46.88,83.61,19.49,7.31,0.00,0.00,0.55
1,56.68,58.23,28.00,29.50,16.54,0.00,0.00,2.49,28.89,0.00,0.00,6.69,18.07,0.00,20.55,3.62,0.00,0.00,0.00,0.00,16.71,1.41,0.00,4.13,59.25,50.00,85.25,19.66,7.31,0.00,0.00,0.54
1,54.56,55.70,28.00,27.81,16.98,0.00,0.00,2.61,28.88,0.00,0.00,6.73,18.94,0.00,20.55,4.12,0.00,0.00,0.00,0.00,16.71,1.41,0.00,3.98,54.78,43.75,80.33,17.36,7.24,0.00,0.00,0.56
1,51.26,53.16,24.00,24.09,16.86,0.00,0.00,2.53,28.21,0.00,0.00,6.47,18.95,0.00,20.55,4.23,0.00,0.00,0.00,0.00,16.17,1.41,0.00,3.84,52.97,37.50,78.69,15.98,7.44,0.00,0.00,0.61
1,51.17,53.16,24.00,24.62,17.42,0.00,0.00,2.67,28.49,0.00,0.00,6.51,18.36,0.00,20.55,4.06,0.00,0.00,0.00,0.00,16.65,1.41,0.00,3.92,50.11,31.25,75.41,14.83,7.31,0.00,0.00,0.60
1,49.74,51.90,22.00,23.50,17.36,0.00,0.00,2.63,28.29,0.00,0.00,6.42,18.39,0.00,20.55,4.07,0.00,0.00,0.00,0.00,16.44,1.41,0.00,3.81,47.25,28.12,70.49,13.13,7.20,0.00,0.00,0.58
1,49.80,50.63,22.00,23.22,16.94,0.00,0.00,2.52,27.92,0.00,0.00,6.35,18.65,0.00,21.92,4.08,0.00,0.00,0.00,0.00,16.67,1.41,0.00,3.90,44.78,25.00,65.57,11.58,7.45,0.00,0.00,0.60
1,51.26,53.16,24.00,23.99,17.99,0.00,0.00,2.71,26.83,0.00,0.00,5.99,19.34,0.00,21.92,4.32,0.00,0.00,0.00,0.00,16.75,1.41,0.00,3.98,39.67,15.63,63.93,6.80,7.35,0.00,0.00,0.57
1,53.55,56.96,26.00,26.08,18.64,0.00,0.00,2.93,25.81,0.00,0.00,5.29,19.68,0.00,23.29,4.36,0.00,0.00,0.00,0.00,16.89,1.41,0.00,4.14,39.76,15.63,62.30,6.80,7.20,0.00,0.00,0.55
1,54.74,59.49,26.00,26.64,18.76,0.00,0.00,2.95,24.93,0.00,0.00,4.95,20.33,0.00,24.66,4.57,0.00,0.00,0.00,0.00,17.48,1.41,0.00,4.38,41.71,21.87,65.57,7.74,7.34,0.00,0.00,0.56
1,54.64,58.23,24.00,26.84,18.69,0.00,0.00,2.94,25.62,0.00,0.00,5.11,20.22,0.00,27.40,4.51,0.00,0.00,0.00,0.00,17.88,1.41,0.00,4.60,41.07,21.87,60.66,7.89,7.44,0.00,0.00,0.58
1,55.02,60.76,26.00,26.45,18.26,0.00,0.00,2.85,25.77,0.00,0.00,4.99,20.10,0.00,28.77,4.42,0.00,0.00,0.00,0.00,17.95,1.41,0.00,4.60,40.63,21.87,55.74,7.87,7.27,0.00,0.00,0.57
1,57.35,65.82,30.00,27.90,17.92,0.00,0.00,2.81,26.08,0.00,0.00,5.07,18.85,0.00,27.40,3.66,0.00,0.00,0.00,0.00,17.41,1.41,0.00,4.25,40.15,21.87,54.10,7.81,7.32,0.00,0.00,0.56
1,57.40,67.09,30.00,27.53,17.05,0.00,0.00,2.58,25.87,0.00,0.00,5.14,18.94,0.00,28.77,3.70,0.00,0.00,0.00,0.00,17.24,1.41,0.00,4.20,39.49,15.63,50.82,7.82,7.67,0.00,0.00,0.61
1,57.84,68.35,30.00,27.65,17.49,0.00,0.00,2.73,25.74,0.00,0.00,5.03,19.24,0.00,30.14,3.83,0.00,0.00,0.00,0.00,17.37,1.41,0.00,4.22,38.66,15.63,50.82,7.57,7.34,0.00,0.00,0.57
1,57.44,68.35,30.00,27.20,17.70,0.00,0.00,2.75,25.61,0.00,0.00,5.00,19.34,0.00,30.14,3.87,0.00,0.00,0.00,0.00,17.21,1.41,0.00,4.13,36.77,12.50,44.26,7.23,7.38,0.00,0.00,0.56
1,55.34,65.82,26.00,26.51,18.12,0.00,0.00,2.81,25.89,0.00,0.00,5.07,20.40,0.00,32.88,4.27,0.00,0.00,0.00,0.00,17.11,1.41,0.00,3.99,35.77,9.38,45.90,6.65,7.48,0.00,0.00,0.58
1,54.56,65.82,24.00,26.34,18.53,0.00,0.00,2.98,25.07,0.00,0.00,4.79,20.08,0.00,32.88,4.13,0.00,0.00,0.00,0.00,17.04,1.41,0.00,4.03,34.58,9.38,40.98,6.45,7.71,0.00,0.00,0.61
1,54.52,64.56,26.00,25.44,18.59,0.00,0.00,3.04,25.69,0.00,0.00,4.98,20.47,0.00,35.62,4.23,0.00,0.00,0.00,0.00,16.58,1.41,0.00,3.70,34.28,9.38,37.70,6.53,7.25,0.00,0.00,0.56
1,52.34,62.03,24.00,23.36,18.48,0.00,0.00,3.10,25.45,0.00,0.00,4.88,21.16,0.00,38.36,4.48,0.00,0.00,0.00,0.00,16.77,1.41,0.00,3.71,35.49,9.38,44.26,6.63,7.19,0.00,0.00,0.55
1,52.56,63.29,22.00,23.34,18.83,0.00,0.00,3.23,24.94,0.00,0.00,4.82,21.77,0.00,39.73,4.72,0.00,0.00,0.00,0.00,17.25,1.41,0.00,3.90,36.56,9.38,47.54,7.02,7.60,0.00,0.00,0.61
1,50.34,59.49,18.00,21.61,19.30,0.00,0.00,3.41,24.67,0.00,0.00,4.61,21.80,0.00,39.73,4.74,0.00,0.00,0.00,0.00,17.45,1.41,0.00,3.97,35.86,9.38,44.26,6.74,7.25,0.00,0.00,0.59
1,51.36,58.23,20.00,22.81,19.27,0.00,0.00,3.34,24.87,0.00,0.00,4.62,21.71,0.00,38.36,4.60,0.00,0.00,0.00,0.00,17.94,1.41,0.00,4.13,36.33,9.38,44.26,6.94,7.64,0.00,0.00,0.63
1,54.03,63.29,26.00,24.32,18.90,0.00,0.00,3.24,24.86,0.00,0.00,4.32,22.28,0.00,39.73,5.00,0.00,0.00,0.00,0.00,18.51,1.41,0.00,4.31,37.09,9.38,45.90,7.05,7.63,0.00,0.00,0.62
1,54.35,64.56,26.00,24.23,18.39,0.00,0.00,3.24,24.72,0.00,0.00,4.26,22.06,0.00,39.73,4.93,0.00,0.00,0.00,0.00,18.78,1.41,0.00,4.36,37.29,9.38,45.90,7.03,7.18,0.00,0.00,0.53
1,54.63,64.56,26.00,24.15,18.00,0.00,0.00,3.19,25.03,0.00,0.00,4.24,23.55,0.00,42.47,5.50,0.00,0.00,0.00,0.00,18.66,1.41,0.00,4.39,37.72,12.50,42.62,6.97,7.40,0.00,0.00,0.56
1,55.26,65.82,28.00,24.46,18.26,0.00,0.00,3.25,25.33,0.00,0.00,4.68,24.02,0.00,42.47,5.79,0.00,0.00,0.00,0.00,19.02,1.41,0.00,4.60,40.27,15.63,49.18,8.23,7.53,0.00,0.00,0.58
1,55.39,65.82,28.00,25.25,18.09,0.00,0.00,3.20,25.45,0.00,0.00,4.71,25.17,0.00,43.84,6.23,0.00,0.00,0.00,0.00,18.72,1.41,0.00,4.62,41.13,15.63,52.46,8.32,7.48,0.00,0.00,0.58
1,54.22,64.56,26.00,24.44,17.56,0.00,0.00,3.12,25.50,0.00,0.00,4.72,25.92,0.00,46.58,6.56,0.00,0.00,0.00,0.00,18.33,1.41,0.00,4.43,41.28,15.63,50.82,8.49,7.26,0.00,0.00,0.55
1,54.74,65.82,28.00,23.99,17.44,0.00,0.00,3.02,26.41,0.00,0.00,5.01,26.06,0.00,46.58,6.56,0.00,0.00,0.00,0.00,18.19,1.41,0.00,4.29,43.77,21.87,54.10,9.92,7.40,0.00,0.00,0.57
1,55.21,68.35,28.00,24.48,16.99,0.00,0.00,2.94,27.42,0.00,0.00,5.21,26.26,0.00,46.58,6.61,0.00,0.00,0.00,0.00,18.24,1.41,0.00,4.22,44.56,21.87,54.10,10.22,7.24,0.00,0.00,0.55
1,54.20,65.82,28.00,23.57,17.18,0.00,0.00,2.96,27.46,0.00,0.00,5.26,25.83,0.00,45.21,6.47,0.00,0.00,0.00,0.00,18.31,1.41,0.00,4.06,42.88,15.63,54.10,9.08,7.18,0.00,0.00,0.54
1,54.98,67.09,26.00,23.84,17.54,0.00,0.00,3.06,27.55,0.00,0.00,5.33,25.91,0.00,43.84,6.45,0.00,0.00,0.00,0.00,18.27,1.41,0.00,4.04,44.39,18.75,57.38,9.77,7.31,0.00,0.00,0.56
1,54.33,63.29,24.00,24.05,18.19,0.00,0.00,3.14,27.82,0.00,0.00,5.47,27.30,0.00,46.58,6.92,0.00,0.00,0.00,0.00,18.40,1.41,0.00,4.06,45.48,18.75,62.30,9.94,7.23,0.00,0.00,0.55
1,53.54,62.03,22.00,24.36,18.67,0.00,0.00,3.16,27.76,0.00,0.00,5.27,27.86,0.00,47.95,7.11,0.00,0.00,0.00,0.00,18.07,1.41,0.00,3.92,46.03,21.87,62.30,10.26,6.95,0.00,0.00,0.50
1,54.17,62.03,24.00,23.95,17.85,0.00,0.00,2.99,27.93,0.00,0.00,5.34,27.86,0.00,47.95,7.02,0.00,0.00,0.00,0.00,17.81,1.41,0.00,3.79,46.33,21.87,62.30,10.39,6.88,0.00,0.00,0.50
1,54.27,60.76,26.00,24.24,17.28,0.00,0.00,2.78,27.52,0.00,0.00,5.18,28.00,0.00,47.95,7.13,0.00,0.00,0.00,0.00,18.12,1.41,0.00,3.99,47.20,21.87,63.93,10.58,7.03,0.00,0.00,0.51
1,54.10,58.23,26.00,24.13,17.42,0.00,0.00,2.85,27.36,0.00,0.00,5.29,27.86,0.00,45.21,6.95,0.00,0.00,0.00,0.00,18.10,0.00,0.00,3.86,47.91,21.87,63.93,10.68,6.74,0.00,0.00,0.47
1,53.23,58.23,26.00,23.38,16.38,0.00,0.00,2.54,28.11,0.00,0.00,5.42,27.81,0.00,43.84,7.17,0.00,0.00,0.00,0.00,17.36,0.00,0.00,3.69,47.79,21.87,63.93,10.81,6.52,0.00,0.00,0.46
1,51.58,56.96,24.00,21.89,16.93,0.00,0.00,2.65,27.94,0.00,0.00,5.38,27.57,0.00,42.47,7.09,0.00,0.00,0.00,0.00,17.78,0.00,0.00,3.76,47.56,21.87,62.30,10.73,6.69,0.00,0.00,0.47
1,51.79,59.49,24.00,22.06,17.32,0.00,0.00,2.71,27.50,0.00,0.00,5.14,27.66,0.00,42.47,7.13,0.00,0.00,0.00,0.00,17.46,0.00,0.00,3.77,46.35,21.87,55.74,10.59,6.53,0.00,0.00,0.45
1,51.79,59.49,24.00,22.10,16.38,0.00,0.00,2.48,27.07,0.00,0.00,5.04,27.29,0.00,42.47,7.04,0.00,0.00,0.00,0.00,17.69,1.41,0.00,3.92,45.27,21.87,52.46,10.16,6.07,0.00,0.00,0.39
1,51.26,58.23,24.00,22.40,16.73,0.00,0.00,2.47,26.54,0.00,0.00,4.83,27.21,0.00,42.47,6.95,0.00,0.00,0.00,0.00,17.50,1.41,0.00,3.82,45.08,21.87,54.10,10.18,5.92,0.00,0.00,0.38
1,51.09,56.96,24.00,22.64,15.98,0.00,0.00,2.30,26.03,0.00,0.00,4.76,26.98,0.00,42.47,6.95,0.00,0.00,0.00,0.00,16.74,1.41,0.00,3.62,44.10,18.75,54.10,9.59,5.67,0.00,0.00,0.34
1,48.83,53.16,18.00,21.17,17.25,0.00,2.33,2.74,26.18,0.00,0.00,4.79,25.31,0.00,41.10,6.16,0.00,0.00,0.00,0.00,16.25,1.41,0.00,3.50,44.82,25.00,52.46,10.12,5.70,0.00,0.00,0.35
1,49.40,53.16,20.00,22.02,17.54,0.00,2.33,2.82,26.68,0.00,0.00,5.09,24.41,0.00,38.36,5.77,0.00,0.00,0.00,0.00,16.41,1.41,0.00,3.51,44.79,25.00,52.46,10.37,5.71,0.00,0.00,0.35
1,48.51,51.90,20.00,21.47,17.26,0.00,2.33,2.72,26.39,0.00,0.00,5.16,23.10,0.00,34.25,5.46,0.00,0.00,0.00,0.00,16.10,1.41,0.00,3.50,44.07,25.00,50.82,10.15,5.62,0.00,0.00,0.34
1,49.39,53.16,20.00,22.10,17.58,0.00,2.33,2.82,26.14,0.00,0.00,4.72,21.89,0.00,32.88,4.75,0.00,0.00,0.00,0.00,15.94,1.41,0.00,3.38,42.55,18.75,49.18,9.57,5.42,0.00,0.00,0.30
1,48.70,53.16,20.00,20.55,17.65,0.00,2.33,2.87,26.73,0.00,0.00,4.99,20.93,0.00,31.51,4.37,0.00,0.00,0.00,0.00,15.70,1.41,0.00,3.27,41.08,18.75,44.26,9.11,5.53,0.00,0.00,0.31
1,50.12,54.43,22.00,21.72,17.73,0.00,2.33,2.94,27.01,0.00,0.00,5.12,19.35,0.00,27.40,3.72,0.00,0.00,0.00,0.00,16.77,2.82,0.00,4.02,40.01,18.75,42.62,8.96,5.68,0.00,0.00,0.32
1,46.99,50.63,18.00,19.88,17.74,0.00,2.33,3.05,26.82,0.00,0.00,5.10,18.53,0.00,23.29,3.48,0.00,0.00,0.00,0.00,16.70,2.82,0.00,4.20,37.59,12.50,39.34,7.56,5.81,0.00,0.00,0.34
1,47.79,50.63,20.00,20.38,17.85,0.00,2.33,3.03,26.37,0.00,0.00,5.15,18.12,0.00,21.92,3.38,0.00,0.00,0.00,0.00,16.62,2.82,0.00,4.24,36.78,12.50,37.70,7.21,5.68,0.00,0.00,0.33
1,47.77,51.90,20.00,20.44,18.14,0.00,2.33,3.20,26.22,0.00,0.00,5.22,18.26,0.00,20.55,3.52,0.00,0.00,0.00,0.00,15.85,2.82,0.00,4.11,36.19,12.50,36.07,7.09,5.53,0.00,0.00,0.32
1,46.78,49.37,20.00,19.95,17.94,0.00,2.33,3.07,25.76,0.00,0.00,5.20,17.92,0.00,20.55,3.50,0.00,0.00,0.00,0.00,15.37,2.82,0.00,3.99,34.95,9.38,34.43,6.68,5.75,0.00,0.00,0.39
1,45.08,46.84,16.00,18.30,17.70,0.00,2.33,3.07,25.65,0.00,0.00,5.09,17.85,0.00,20.55,3.46,0.00,0.00,0.00,0.00,15.93,2.82,0.00,4.10,34.42,9.38,29.51,6.44,5.77,0.00,0.00,0.39
1,44.70,45.57,16.00,17.69,17.59,0.00,2.33,3.09,25.78,0.00,0.00,5.37,16.86,0.00,17.81,3.02,0.00,0.00,0.00,0.00,16.01,2.82,0.00,4.21,33.50,6.25,31.15,5.91,5.62,0.00,0.00,0.38
1,46.10,46.84,18.00,18.70,18.06,0.00,2.33,3.26,26.98,0.00,0.00,5.99,16.94,0.00,17.81,3.06,0.00,0.00,0.00,0.00,15.73,2.82,0.00,4.15,33.63,6.25,34.43,5.61,5.71,0.00,0.00,0.38
1,45.35,46.84,16.00,17.97,18.15,0.00,2.33,3.23,27.47,0.00,0.00,6.31,17.07,0.00,19.18,3.22,0.00,0.00,0.00,0.00,15.57,2.82,0.00,4.01,33.94,6.25,36.07,5.74,5.89,0.00,0.00,0.40
1,45.34,46.84,18.00,18.09,17.99,0.00,2.33,3.18,27.36,0.00,0.00,6.15,17.25,0.00,20.55,3.26,0.00,0.00,0.00,0.00,15.33,2.82,0.00,3.92,34.68,6.25,37.70,5.94,5.82,0.00,0.00,0.39
1,45.90,46.84,18.00,18.26,17.93,0.00,2.33,3.18,27.38,0.00,0.00,6.35,16.19,0.00,17.81,2.74,0.00,0.00,0.00,0.00,15.74,2.82,0.00,4.03,35.18,6.25,39.34,5.87,5.74,0.00,0.00,0.39
1,46.15,46.84,18.00,18.36,17.83,0.00,2.33,3.17,27.35,0.00,0.00,6.28,16.38,0.00,20.55,2.70,0.00,0.00,0.00,0.00,15.71,2.82,0.00,4.07,36.22,6.25,42.62,6.33,5.78,0.00,0.00,0.39
1,47.48,48.10,20.00,19.63,17.64,0.00,2.33,3.17,28.07,0.00,0.00,6.54,15.89,0.00,17.81,2.55,0.00,0.00,0.00,0.00,15.72,2.82,0.00,4.05,37.91,9.38,44.26,6.59,5.78,0.00,0.00,0.39
1,49.29,50.63,22.00,20.75,17.31,0.00,2.33,3.08,28.86,0.00,0.00,6.82,15.69,0.00,16.44,2.38,0.00,0.00,0.00,0.00,15.15,1.41,0.00,3.76,41.45,12.50,50.82,8.40,5.84,0.00,0.00,0.38
1,49.71,50.63,22.00,20.70,17.25,0.00,2.33,3.15,29.54,0.00,0.00,7.12,15.41,0.00,16.44,2.35,0.00,0.00,0.00,0.00,15.40,1.41,0.00,3.94,41.69,12.50,49.18,8.82,6.05,0.00,0.00,0.40
1,50.05,50.63,24.00,21.36,17.97,0.00,2.33,3.29,29.98,0.00,0.00,7.46,16.19,0.00,17.81,2.63,0.00,0.00,0.00,0.00,15.81,1.41,0.00,4.41,42.06,12.50,49.18,8.88,6.37,0.00,0.00,0.43
1,50.44,53.16,26.00,21.09,18.87,0.00,2.33,3.60,30.93,0.00,0.00,7.81,15.84,0.00,16.44,2.57,0.00,0.00,0.00,0.00,16.14,1.41,0.00,4.59,43.10,12.50,50.82,9.67,6.02,0.00,0.00,0.41
1,50.81,53.16,28.00,21.68,18.30,0.00,0.00,3.33,30.40,0.00,0.00,7.65,16.20,0.00,16.44,2.67,0.00,0.00,0.00,0.00,16.05,1.41,0.00,4.62,42.38,12.50,52.46,9.07,5.95,0.00,0.00,0.40
1,51.52,54.43,28.00,22.34,18.92,0.00,0.00,3.48,30.64,0.00,0.00,7.51,16.39,0.00,16.44,2.77,0.00,0.00,0.00,0.00,16.41,1.41,0.00,4.78,43.51,12.50,54.10,9.52,5.97,0.00,0.00,0.40
1,52.94,56.96,30.00,23.41,18.73,0.00,0.00,3.54,30.49,0.00,0.00,7.49,16.82,0.00,16.44,2.81,0.00,0.00,0.00,0.00,16.59,1.41,0.00,4.90,45.45,21.87,57.38,10.53,5.88,0.00,0.00,0.39
1,54.18,58.23,34.00,24.64,18.76,0.00,0.00,3.57,29.90,0.00,0.00,7.27,16.88,0.00,16.44,2.83,0.00,0.00,0.00,0.00,16.91,1.41,0.00,5.03,46.78,21.87,60.66,10.80,5.78,0.00,0.00,0.39
1,53.66,58.23,34.00,23.98,18.46,0.00,0.00,3.49,29.62,0.00,0.00,7.10,17.24,0.00,16.44,2.89,0.00,0.00,0.00,0.00,16.20,1.41,0.00,4.69,47.38,21.87,63.93,11.00,5.83,0.00,0.00,0.40
1,54.57,58.23,34.00,24.59,18.78,0.00,0.00,3.56,29.79,0.00,0.00,6.99,17.86,0.00,17.81,3.20,0.00,0.00,0.00,0.00,16.13,0.00,0.00,4.14,50.03,28.12,68.85,11.92,5.47,0.00,0.00,0.34
1,55.47,59.49,36.00,25.21,19.03,0.00,0.00,3.65,30.58,0.00,0.00,7.57,18.08,0.00,19.18,3.30,0.00,0.00,0.00,0.00,16.54,0.00,0.00,4.38,52.90,31.25,77.05,13.14,5.51,0.00,0.00,0.34
1,54.54,56.96,34.00,24.46,18.23,0.00,0.00,3.41,30.62,0.00,0.00,7.47,17.59,0.00,17.81,3.12,0.00,0.00,0.00,0.00,16.62,0.00,0.00,4.40,53.28,31.25,78.69,13.27,5.58,0.00,0.00,0.34
1,57.40,59.49,40.00,25.68,19.15,0.00,0.00,3.69,30.18,0.00,0.00,7.34,17.79,0.00,17.81,3.14,0.00,0.00,0.00,0.00,17.21,0.00,0.00,4.61,55.74,37.50,81.97,14.07,5.37,0.00,0.00,0.27
1,57.66,60.76,42.00,26.78,19.14,0.00,0.00,3.70,30.39,0.00,0.00,7.35,17.93,0.00,17.81,3.21,0.00,0.00,0.00,0.00,17.31,0.00,0.00,4.84,59.18,43.75,86.89,16.21,5.50,0.00,0.00,0.28
1,57.43,62.03,42.00,26.83,19.41,0.00,0.00,3.78,30.54,0.00,0.00,7.29,17.41,0.00,15.07,3.13,0.00,0.00,0.00,0.00,17.73,0.00,0.00,4.88,60.49,46.88,88.52,16.98,5.75,0.00,0.00,0.33
1,57.26,60.76,42.00,26.53,19.18,0.00,0.00,3.72,29.24,0.00,0.00,6.85,17.31,0.00,13.70,3.17,0.00,0.00,0.00,0.00,17.74,0.00,0.00,4.78,60.98,46.88,86.89,17.34,5.66,0.00,0.00,0.32
1,58.02,63.29,42.00,26.43,19.59,0.00,0.00,3.82,28.17,0.00,0.00,6.36,16.52,0.00,10.96,2.77,0.00,0.00,0.00,0.00,17.85,0.00,0.00,4.92,60.69,46.88,88.52,17.28,5.48,0.00,0.00,0.31
1,57.91,63.29,40.00,26.66,20.53,0.00,0.00,4.12,27.75,0.00,0.00,6.32,16.67,0.00,9.59,2.83,0.00,0.00,0.00,0.00,17.58,0.00,0.00,4.85,59.23,46.88,85.25,16.93,5.44,0.00,0.00,0.30
1,58.34,63.29,40.00,26.80,20.62,0.00,0.00,4.14,27.83,0.00,0.00,6.18,16.99,0.00,12.33,2.92,0.00,0.00,0.00,0.00,17.12,0.00,0.00,4.69,59.45,50.00,85.25,17.28,5.58,0.00,0.00,0.31
1,59.82,64.56,44.00,28.17,20.54,0.00,0.00,4.02,27.41,0.00,0.00,6.02,16.25,0.00,8.22,2.83,0.00,0.00,0.00,0.00,16.91,0.00,0.00,4.55,60.75,56.25,85.25,18.01,5.63,0.00,0.00,0.32
1,59.25,64.56,42.00,27.22,20.51,0.00,0.00,3.99,28.15,0.00,0.00,6.19,16.52,0.00,9.59,2.80,0.00,0.00,0.00,0.00,17.32,0.00,0.00,4.57,61.24,56.25,90.16,17.94,5.70,0.00,0.00,0.32
1,57.80,63.29,42.00,26.45,20.74,0.00,0.00,4.03,27.20,0.00,0.00,5.94,16.74,0.00,10.96,2.92,0.00,0.00,0.00,0.00,17.58,0.00,0.00,4.63,58.25,50.00,85.25,16.59,5.71,0.00,0.00,0.33
1,59.58,67.09,44.00,27.36,20.52,0.00,0.00,3.98,27.55,0.00,0.00,6.17,17.07,0.00,13.70,3.01,0.00,0.00,0.00,0.00,17.18,0.00,0.00,4.51,58.02,50.00,86.89,16.18,5.70,0.00,0.00,0.33
1,57.48,65.82,40.00,26.28,20.05,0.00,0.00,3.86,27.65,0.00,0.00,5.90,16.72,0.00,12.33,2.76,0.00,0.00,0.00,0.00,16.85,0.00,0.00,4.18,57.75,50.00,86.89,16.07,5.46,0.00,0.00,0.32
1,58.18,67.09,40.00,26.53,19.03,0.00,0.00,3.65,26.58,0.00,0.00,5.57,17.26,0.00,13.70,2.83,0.00,0.00,0.00,0.00,16.56,0.00,0.00,3.77,56.44,46.88,83.61,15.53,5.60,0.00,0.00,0.33
1,61.28,72.15,46.00,28.37,18.72,0.00,0.00,3.37,27.33,0.00,0.00,5.79,17.14,0.00,13.70,2.82,0.00,0.00,0.00,0.00,17.11,0.00,0.00,3.83,56.37,43.75,83.61,15.02,5.97,0.00,0.00,0.41
1,60.05,69.62,46.00,27.06,18.71,0.00,0.00,3.32,27.15,0.00,0.00,5.60,17.56,0.00,16.44,2.78,0.00,0.00,0.00,0.00,17.40,0.00,0.00,4.00,58.06,46.88,85.25,15.26,6.03,0.00,0.00,0.41
1,60.12,70.89,46.00,26.32,17.97,0.00,0.00,3.02,27.58,0.00,0.00,5.63,17.13,0.00,16.44,2.75,0.00,0.00,0.00,0.00,16.88,0.00,0.00,3.84,55.81,37.50,80.33,14.60,6.32,0.00,0.00,0.45
1,60.72,69.62,44.00,27.70,18.03,0.00,0.00,3.04,26.66,0.00,0.00,5.63,16.66,0.00,15.07,2.63,0.00,0.00,0.00,0.00,16.58,0.00,0.00,3.78,56.28,37.50,85.25,14.65,6.52,0.00,0.00,0.47
1,59.65,67.09,42.00,26.96,17.88,0.00,0.00,2.95,26.44,0.00,0.00,5.64,16.97,0.00,16.44,2.74,0.00,0.00,0.00,0.00,16.56,0.00,0.00,3.85,55.55,37.50,83.61,14.33,6.46,0.00,0.00,0.46
1,59.71,68.35,44.00,26.78,17.17,0.00,0.00,2.76,25.69,0.00,0.00,5.52,16.41,0.00,16.44,2.47,0.00,0.00,0.00,0.00,18.26,1.41,0.00,5.44,56.21,37.50,81.97,15.37,6.52,0.00,0.00,0.47
1,59.61,69.62,42.00,26.57,17.43,0.00,0.00,2.83,24.53,0.00,0.00,5.03,16.46,0.00,16.44,2.50,0.00,0.00,0.00,0.00,19.95,7.04,0.00,6.70,55.23,31.25,80.33,14.59,6.62,0.00,0.00,0.46
1,61.66,74.68,48.00,27.60,17.34,0.00,0.00,2.82,24.83,0.00,0.00,4.85,16.89,0.00,17.81,2.61,0.00,0.00,0.00,0.00,20.26,7.04,0.00,6.69,56.28,34.38,81.97,15.32,6.71,0.00,0.00,0.49
1,60.74,73.42,46.00,27.30,16.87,0.00,0.00,2.70,25.21,0.00,0.00,4.89,17.76,0.00,20.55,2.92,0.00,0.00,0.00,0.00,21.05,9.86,0.00,7.11,57.23,34.38,81.97,16.05,6.71,0.00,0.00,0.49
1,59.76,70.89,44.00,27.21,17.04,0.00,0.00,2.68,26.39,0.00,0.00,5.63,17.88,0.00,20.55,3.15,0.00,0.00,0.00,0.00,22.14,11.27,0.00,7.56,54.08,28.12,80.33,14.06,6.65,0.00,0.00,0.49
1,59.76,72.15,44.00,27.01,17.06,0.00,0.00,2.74,26.60,0.00,0.00,5.69,18.14,0.00,23.29,3.17,0.00,0.00,0.00,0.00,21.77,11.27,0.00,7.49,54.44,28.12,80.33,13.79,6.24,0.00,0.00,0.42
1,58.41,69.62,42.00,26.41,16.77,0.00,0.00,2.67,27.12,0.00,0.00,5.80,18.89,0.00,26.03,3.35,0.00,0.00,0.00,0.00,21.99,11.27,0.00,7.61,54.69,28.12,81.97,13.77,6.19,0.00,0.00,0.43
1,57.22,67.09,40.00,25.54,16.42,0.00,0.00,2.59,27.87,0.00,0.00,6.29,19.02,0.00,28.77,3.45,0.00,0.00,0.00,0.00,22.62,11.27,0.00,8.08,54.90,28.12,81.97,13.83,5.97,0.00,0.00,0.41
1,57.86,67.09,44.00,26.40,15.92,0.00,0.00,2.38,28.46,0.00,0.00,6.46,19.17,0.00,30.14,3.44,0.00,0.00,0.00,0.00,23.00,11.27,0.00,8.25,57.05,31.25,83.61,14.52,6.08,0.00,0.00,0.41
1,58.32,68.35,46.00,26.40,16.65,0.00,0.00,2.71,28.07,0.00,0.00,6.48,19.18,0.00,28.77,3.47,0.00,0.00,0.00,0.00,24.00,12.68,0.00,8.81,56.04,28.12,81.97,13.81,6.38,0.00,0.00,0.44
1,56.83,68.35,42.00,26.27,16.28,0.00,0.00,2.70,27.96,0.00,0.00,6.64,19.67,0.00,30.14,3.79,0.00,0.00,0.00,0.00,25.27,14.08,0.00,9.48,54.42,21.87,83.61,12.94,6.19,0.00,0.00,0.43
1,57.28,69.62,42.00,25.82,16.18,0.00,0.00,2.68,27.11,0.00,0.00,6.30,19.43,0.00,28.77,3.80,0.00,0.00,0.00,0.00,25.38,14.08,0.00,9.77,55.66,25.00,81.97,13.46,6.17,0.00,0.00,0.43
1,56.94,68.35,40.00,25.65,16.06,0.00,0.00,2.61,27.72,0.00,0.00,6.58,19.16,0.00,27.40,3.68,0.00,0.00,0.00,0.00,25.84,15.49,0.00,10.15,55.86,25.00,81.97,14.16,6.10,0.00,0.00,0.42
1,57.04,68.35,40.00,25.22,16.16,0.00,0.00,2.62,27.55,0.00,0.00,6.41,20.40,0.00,30.14,4.18,0.00,0.00,0.00,0.00,25.99,15.49,0.00,10.42,53.90,25.00,78.69,13.63,5.99,0.00,0.00,0.41
1,56.80,65.82,40.00,25.25,15.99,0.00,0.00,2.58,27.51,0.00,0.00,6.43,20.51,0.00,30.14,4.29,0.00,0.00,0.00,0.00,26.04,15.49,0.00,10.46,53.16,25.00,75.41,13.43,5.86,0.00,0.00,0.40
1,56.72,67.09,38.00,24.66,16.73,0.00,0.00,2.70,28.03,0.00,0.00,6.47,21.45,0.00,31.51,4.77,0.00,0.00,0.00,0.00,25.86,15.49,0.00,10.33,52.07,25.00,75.41,13.15,5.97,0.00,0.00,0.41
0,54.53,60.76,32.00,23.92,16.86,0.00,0.00,2.79,27.36,0.00,0.00,6.36,21.83,0.00,31.51,4.94,0.00,0.00,0.00,0.00,25.40,15.49,0.00,10.35,51.28,25.00,72.13,13.07,5.64,0.00,0.00,0.34
0,54.84,63.29,30.00,24.43,16.65,0.00,0.00,2.76,26.61,0.00,0.00,6.24,21.02,0.00,28.77,4.83,0.00,0.00,0.00,0.00,24.72,15.49,0.00,9.98,50.04,25.00,70.49,12.75,5.66,0.00,0.00,0.35
0,53.30,60.76,30.00,23.64,16.86,0.00,0.00,2.77,26.50,0.00,0.00,6.40,21.45,0.00,31.51,4.98,0.00,0.00,0.00,0.00,24.96,15.49,0.00,10.07,46.70,21.87,65.57,11.55,5.26,0.00,0.00,0.31
0,50.32,56.96,26.00,20.76,16.90,0.00,0.00,2.81,26.50,0.00,0.00,6.24,22.46,0.00,34.25,5.30,0.00,0.00,0.00,0.00,24.95,15.49,0.00,10.08,44.94,21.87,57.38,11.31,5.22,0.00,0.00,0.30
0,50.54,55.70,28.00,21.09,17.21,0.00,0.00,2.86,27.30,0.00,0.00,6.39,22.50,0.00,34.25,5.28,0.00,0.00,0.00,0.00,24.85,15.49,0.00,9.92,44.81,21.87,55.74,11.35,5.21,0.00,0.00,0.31
0,51.66,55.70,26.00,22.86,17.83,0.00,0.00,2.97,28.08,0.00,0.00,6.68,22.21,0.00,32.88,5.20,0.00,0.00,0.00,0.00,23.89,15.49,0.00,9.72,41.84,18.75,52.46,9.82,5.16,0.00,0.00,0.32
0,52.36,54.43,30.00,24.86,18.25,0.00,0.00,3.04,28.45,0.00,0.00,6.90,21.55,0.00,31.51,4.99,0.00,0.00,0.00,0.00,21.61,9.86,0.00,7.26,39.93,18.75,47.54,9.46,5.04,0.00,0.00,0.31
0,50.56,50.63,24.00,23.71,18.29,0.00,0.00,3.13,27.38,0.00,0.00,6.71,21.79,0.00,30.14,5.19,0.00,0.00,0.00,0.00,21.00,8.45,0.00,6.91,37.88,18.75,42.62,8.75,4.86,0.00,0.00,0.28
0,52.42,54.43,28.00,24.17,18.29,0.00,0.00,3.08,27.83,0.00,0.00,6.89,20.97,0.00,28.77,4.72,0.00,0.00,0.00,0.00,20.42,8.45,0.00,6.61,33.14,12.50,36.07,6.55,4.67,0.00,0.00,0.27
0,52.03,53.16,26.00,23.61,18.14,0.00,0.00,3.05,26.42,0.00,0.00,6.06,21.16,0.00,31.51,4.64,0.00,0.00,0.00,0.00,18.98,5.63,0.00,6.02,32.43,12.50,34.43,6.25,4.85,0.00,0.00,0.28
0,52.38,54.43,24.00,23.74,18.11,0.00,0.00,3.01,26.33,0.00,0.00,6.01,20.93,0.00,28.77,4.63,0.00,0.00,0.00,0.00,19.15,4.23,0.00,5.89,29.94,9.38,29.51,5.55,4.78,0.00,0.00,0.28
0,54.57,56.96,28.00,25.52,18.34,0.00,0.00,3.04,26.08,0.00,0.00,5.97,20.84,0.00,30.14,4.53,0.00,0.00,0.00,0.00,19.27,4.23,0.00,6.08,27.53,6.25,24.59,4.77,4.76,0.00,0.00,0.28
0,55.58,56.96,30.00,25.83,18.05,0.00,0.00,2.98,25.62,0.00,0.00,5.58,20.74,0.00,28.77,4.53,0.00,0.00,0.00,0.00,19.06,4.23,0.00,5.83,26.56,6.25,21.31,4.63,4.90,0.00,0.00,0.29
0,55.06,59.49,28.00,25.64,18.19,0.00,0.00,2.96,25.37,0.00,0.00,5.59,20.92,0.00,27.40,4.56,0.00,0.00,0.00,0.00,18.69,4.23,0.00,5.46,23.10,3.12,14.75,3.66,4.80,0.00,0.00,0.29
0,54.41,58.23,26.00,25.63,17.87,0.00,0.00,2.94,25.25,0.00,0.00,5.59,20.42,0.00,27.40,4.44,0.00,0.00,0.00,0.00,18.94,4.23,0.00,5.44,22.82,3.12,13.11,3.65,4.53,0.00,0.00,0.25
0,53.73,55.70,26.00,25.76,17.34,0.00,0.00,2.60,25.04,0.00,0.00,5.42,19.81,0.00,26.03,4.21,0.00,0.00,0.00,0.00,17.89,1.41,0.00,4.90,22.05,3.12,8.20,3.39,4.39,0.00,0.00,0.24
0,52.67,53.16,26.00,25.32,17.18,0.00,0.00,2.58,25.10,0.00,0.00,5.53,19.83,0.00,26.03,4.20,0.00,0.00,0.00,0.00,16.91,1.41,0.00,4.08,21.06,3.12,6.56,3.15,4.45,0.00,0.00,0.25
0,52.16,50.63,26.00,24.99,16.85,0.00,0.00,2.54,24.97,0.00,0.00,5.63,19.84,0.00,26.03,4.29,0.00,0.00,0.00,0.00,16.68,1.41,0.00,3.93,17.92,0.00,1.64,1.78,4.32,0.00,0.00,0.24
0,50.90,48.10,24.00,24.31,16.86,0.00,0.00,2.51,24.87,0.00,0.00,5.64,19.07,0.00,24.66,4.15,0.00,0.00,0.00,0.00,15.81,0.00,0.00,3.26,17.22,0.00,1.64,1.65,4.27,0.00,0.00,0.24
0,51.53,49.37,22.00,24.22,16.74,0.00,0.00,2.54,24.99,0.00,0.00,5.85,18.74,0.00,23.29,3.87,0.00,0.00,0.00,0.00,15.75,0.00,0.00,3.31,17.23,0.00,1.64,1.65,4.23,0.00,0.00,0.23
0,51.19,48.10,22.00,24.57,17.13,0.00,0.00,2.66,24.37,0.00,0.00,5.81,17.34,0.00,20.55,3.36,0.00,0.00,0.00,0.00,16.05,0.00,0.00,3.41,17.69,0.00,1.64,1.70,4.01,0.00,0.00,0.21
0,51.68,49.37,24.00,24.70,17.47,0.00,0.00,2.86,24.03,0.00,0.00,5.73,16.87,0.00,21.92,3.15,0.00,0.00,0.00,0.00,15.75,0.00,0.00,3.41,17.93,0.00,1.64,1.78,3.71,0.00,0.00,0.18
0,51.46,50.63,24.00,23.95,17.24,0.00,0.00,2.81,24.72,0.00,0.00,5.98,17.23,0.00,23.29,3.23,0.00,0.00,0.00,0.00,15.95,0.00,0.00,3.44,17.41,0.00,0.00,1.69,3.73,0.00,0.00,0.17
0,52.38,51.90,26.00,24.11,17.41,0.00,0.00,2.89,24.33,0.00,0.00,5.86,16.83,0.00,20.55,3.10,0.00,0.00,0.00,0.00,15.93,0.00,0.00,3.44,18.00,0.00,1.64,1.79,3.71,0.00,0.00,0.17
0,51.86,50.63,26.00,24.22,17.14,0.00,0.00,2.80,24.55,0.00,0.00,6.34,16.45,0.00,17.81,3.11,0.00,0.00,0.00,0.00,15.34,0.00,0.00,3.28,17.98,0.00,1.64,1.76,3.62,0.00,0.00,0.17
0,52.26,51.90,26.00,24.68,17.50,0.00,0.00,2.83,24.27,0.00,0.00,6.29,15.64,0.00,16.44,2.78,0.00,0.00,0.00,0.00,15.40,0.00,0.00,3.35,18.06,0.00,1.64,1.68,3.36,0.00,0.00,0.13
0,51.03,50.63,26.00,22.40,17.16,0.00,0.00,2.83,23.65,0.00,0.00,5.98,15.65,0.00,16.44,2.80,0.00,0.00,0.00,0.00,15.38,0.00,0.00,3.33,18.54,0.00,1.64,1.75,3.31,0.00,0.00,0.13
0,49.13,48.10,22.00,20.87,16.73,0.00,0.00,2.71,23.16,0.00,0.00,5.85,15.82,0.00,16.44,2.89,0.00,0.00,0.00,0.00,15.17,0.00,0.00,3.34,18.27,0.00,1.64,1.73,3.32,0.00,0.00,0.13
0,48.43,46.84,22.00,19.07,16.30,0.00,0.00,2.51,23.09,0.00,0.00,5.90,16.09,0.00,19.18,3.12,0.00,0.00,0.00,0.00,14.83,0.00,0.00,3.12,18.45,0.00,4.92,1.76,3.19,0.00,0.00,0.12
0,47.11,44.30,18.00,18.88,16.70,0.00,0.00,2.63,24.18,0.00,0.00,6.31,16.22,0.00,19.18,3.14,0.00,0.00,0.00,0.00,14.93,0.00,0.00,3.20,19.08,0.00,4.92,1.79,3.38,0.00,0.00,0.15
0,46.78,44.30,18.00,18.84,16.38,0.00,0.00,2.63,23.97,0.00,0.00,6.35,15.09,0.00,15.07,2.84,0.00,0.00,0.00,0.00,15.23,0.00,0.00,3.22,19.59,0.00,6.56,1.92,3.19,0.00,0.00,0.13
0,45.06,41.77,18.00,17.58,15.87,0.00,0.00,2.56,23.67,0.00,0.00,6.34,15.02,0.00,15.07,2.82,0.00,0.00,0.00,0.00,14.17,0.00,0.00,2.91,19.54,0.00,6.56,1.90,3.21,0.00,0.00,0.13
0,42.80,40.51,14.00,15.77,15.56,0.00,0.00,2.48,23.66,0.00,0.00,6.38,14.45,0.00,10.96,2.69,0.00,0.00,0.00,0.00,13.53,0.00,0.00,2.54,19.91,0.00,9.84,2.01,3.17,0.00,0.00,0.13
0,44.18,44.30,16.00,16.64,16.06,0.00,0.00,2.60,22.98,0.00,0.00,6.01,13.73,0.00,9.59,2.50,0.00,0.00,0.00,0.00,13.55,0.00,0.00,2.54,19.41,0.00,9.84,1.95,3.12,0.00,0.00,0.13
0,42.00,40.51,12.00,15.42,16.20,0.00,0.00,2.71,23.33,0.00,0.00,6.42,13.89,0.00,10.96,2.55,0.00,0.00,0.00,0.00,13.36,0.00,0.00,2.57,19.82,0.00,9.84,2.08,3.11,0.00,0.00,0.12
0,41.81,41.77,12.00,15.36,16.11,0.00,0.00,2.68,23.37,0.00,0.00,6.42,13.81,0.00,10.96,2.50,0.00,0.00,0.00,0.00,12.90,0.00,0.00,2.44,19.39,0.00,9.84,2.00,3.27,0.00,0.00,0.14
0,42.49,43.04,12.00,14.99,16.20,0.00,0.00,2.69,23.51,0.00,0.00,6.73,13.80,0.00,9.59,2.41,0.00,0.00,0.00,0.00,12.71,0.00,0.00,2.40,18.92,0.00,9.84,1.89,3.27,0.00,0.00,0.14
0,41.81,43.04,12.00,14.80,16.80,0.00,0.00,2.88,23.44,0.00,0.00,6.73,14.04,0.00,12.33,2.48,0.00,0.00,0.00,0.00,12.66,0.00,0.00,2.39,19.24,0.00,9.84,1.98,3.16,0.00,0.00,0.13
0,42.38,45.57,14.00,15.27,16.91,0.00,0.00,2.94,24.16,0.00,0.00,6.99,14.33,0.00,13.70,2.52,0.00,0.00,0.00,0.00,12.43,0.00,0.00,2.34,18.67,0.00,9.84,1.93,3.22,0.00,0.00,0.13
0,43.22,46.84,14.00,15.51,16.85,0.00,0.00,2.91,25.03,0.00,0.00,7.98,13.54,0.00,10.96,2.24,0.00,0.00,0.00,0.00,12.46,0.00,0.00,2.33,19.06,0.00,9.84,1.96,3.24,0.00,0.00,0.13
0,42.40,44.30,14.00,15.40,16.60,0.00,0.00,2.87,24.59,0.00,0.00,7.64,13.76,0.00,12.33,2.22,0.00,0.00,0.00,0.00,12.45,0.00,0.00,2.29,19.39,0.00,9.84,1.97,3.32,0.00,0.00,0.14
0,41.14,41.77,14.00,14.29,16.64,0.00,0.00,2.77,24.32,0.00,0.00,7.62,13.50,0.00,12.33,2.21,0.00,0.00,0.00,0.00,12.35,0.00,0.00,2.23,20.39,0.00,11.48,2.10,3.35,0.00,0.00,0.14
0,42.09,43.04,12.00,15.20,15.58,0.00,0.00,2.40,24.80,0.00,0.00,7.68,13.52,0.00,12.33,2.18,0.00,0.00,0.00,0.00,12.51,0.00,0.00,2.14,20.21,0.00,11.48,2.04,3.36,0.00,0.00,0.14
0,40.17,39.24,10.00,14.13,15.27,0.00,0.00,2.36,24.34,0.00,0.00,7.41,13.33,0.00,10.96,2.12,0.00,0.00,0.00,0.00,12.58,0.00,0.00,2.16,20.47,0.00,11.48,2.05,3.31,0.00,0.00,0.14
0,38.40,35.44,6.00,13.21,14.94,0.00,0.00,2.29,25.27,0.00,0.00,7.63,13.51,0.00,10.96,2.13,0.00,0.00,0.00,0.00,12.12,0.00,0.00,1.97,19.91,0.00,9.84,1.91,3.31,0.00,0.00,0.14
0,38.11,36.71,6.00,12.90,14.88,0.00,0.00,2.32,24.72,0.00,0.00,7.08,13.24,0.00,10.96,2.06,0.00,0.00,0.00,0.00,12.42,0.00,0.00,1.98,19.55,0.00,9.84,1.86,3.30,0.00,0.00,0.14
0,36.73,34.18,4.00,12.07,14.48,0.00,0.00,2.24,25.23,0.00,0.00,7.13,13.35,0.00,10.96,2.06,0.00,0.00,0.00,0.00,12.82,0.00,0.00,2.10,19.95,0.00,13.11,1.97,3.36,0.00,0.00,0.14
0,36.91,34.18,4.00,12.07,14.42,0.00,0.00,2.17,25.32,0.00,0.00,7.17,13.37,0.00,10.96,2.05,0.00,0.00,0.00,0.00,12.81,0.00,0.00,2.08,19.22,0.00,13.11,1.84,3.27,0.00,0.00,0.14
0,35.44,32.91,4.00,11.73,14.16,0.00,0.00,2.12,25.30,0.00,0.00,7.20,13.66,0.00,13.70,2.07,0.00,0.00,0.00,0.00,12.74,0.00,0.00,2.06,19.61,0.00,13.11,1.91,3.22,0.00,0.00,0.13
0,35.63,34.18,4.00,11.76,14.30,0.00,0.00,2.18,25.47,0.00,0.00,7.05,12.79,0.00,10.96,1.63,0.00,0.00,0.00,0.00,12.72,0.00,0.00,2.04,19.15,0.00,9.84,1.89,3.22,0.00,0.00,0.13
0,34.32,30.38,4.00,11.07,14.11,0.00,0.00,2.10,25.77,0.00,0.00,7.03,12.88,0.00,10.96,1.67,0.00,0.00,0.00,0.00,12.70,0.00,0.00,1.93,18.96,0.00,9.84,1.89,3.02,0.00,0.00,0.11
0,35.32,32.91,4.00,11.80,14.10,0.00,0.00,2.08,25.48,0.00,0.00,6.90,13.08,0.00,12.33,1.73,0.00,0.00,0.00,0.00,12.10,0.00,0.00,1.83,18.65,0.00,8.20,1.77,3.07,0.00,0.00,0.11
0,35.05,32.91,4.00,11.68,14.48,0.00,0.00,2.15,25.45,0.00,0.00,6.81,12.98,0.00,12.33,1.72,0.00,0.00,0.00,0.00,12.10,0.00,0.00,1.84,19.09,0.00,8.20,1.82,3.19,0.00,0.00,0.12
0,35.43,35.44,4.00,12.05,14.40,0.00,0.00,2.12,25.37,0.00,0.00,6.86,13.32,0.00,13.70,1.87,0.00,0.00,0.00,0.00,12.30,0.00,0.00,2.01,19.00,0.00,4.92,1.81,3.21,0.00,0.00,0.12
0,34.15,32.91,2.00,11.22,14.59,0.00,0.00,2.20,25.89,0.00,0.00,6.90,13.54,0.00,13.70,1.81,0.00,0.00,0.00,0.00,12.35,0.00,0.00,2.04,19.62,0.00,4.92,1.88,3.27,0.00,0.00,0.12
0,32.87,30.38,2.00,10.56,14.52,0.00,0.00,2.13,25.50,0.00,0.00,6.64,13.13,0.00,12.33,1.70,0.00,0.00,0.00,0.00,12.07,0.00,0.00,1.95,19.55,0.00,4.92,1.84,3.30,0.00,0.00,0.12
0,32.57,29.11,2.00,9.97,14.55,0.00,0.00,2.12,25.27,0.00,0.00,6.57,13.10,0.00,12.33,1.69,0.00,0.00,0.00,0.00,11.61,0.00,0.00,1.82,19.55,0.00,4.92,1.79,3.18,0.00,0.00,0.11
0,32.46,29.11,2.00,9.82,14.82,0.00,0.00,2.21,25.22,0.00,0.00,6.40,13.06,0.00,13.70,1.70,0.00,0.00,0.00,0.00,11.87,0.00,0.00,1.92,19.19,0.00,4.92,1.76,3.27,0.00,0.00,0.12
0,32.27,27.85,2.00,9.58,14.36,0.00,0.00,2.20,25.14,0.00,0.00,6.16,12.84,0.00,10.96,1.67,0.00,0.00,0.00,0.00,11.86,0.00,0.00,1.92,19.16,0.00,4.92,1.72,3.40,0.00,0.00,0.13
0,31.45,24.05,0.00,9.00,14.60,0.00,0.00,2.12,24.47,0.00,0.00,5.70,12.96,0.00,12.33,1.69,0.00,0.00,0.00,0.00,11.95,0.00,0.00,1.95,19.46,0.00,4.92,1.77,3.43,0.00,0.00,0.14
0,30.57,22.78,0.00,8.69,14.26,0.00,0.00,2.09,22.79,0.00,0.00,4.32,13.24,0.00,13.70,1.72,0.00,0.00,0.00,0.00,11.74,0.00,0.00,1.93,19.79,0.00,4.92,1.84,3.39,0.00,0.00,0.14
0,31.37,25.32,0.00,8.89,14.46,0.00,0.00,2.15,22.46,0.00,0.00,4.15,13.08,0.00,12.33,1.72,0.00,0.00,0.00,0.00,12.01,0.00,0.00,2.01,19.62,0.00,4.92,1.82,3.20,0.00,0.00,0.12
0,31.78,26.58,0.00,9.09,14.31,0.00,0.00,2.11,22.70,0.00,0.00,4.14,13.50,0.00,12.33,1.77,0.00,0.00,0.00,0.00,12.02,0.00,0.00,2.05,18.53,0.00,3.28,1.68,3.20,0.00,0.00,0.13
0,30.72,25.32,0.00,9.06,14.47,0.00,0.00,2.18,22.31,0.00,0.00,4.05,13.75,0.00,12.33,1.89,0.00,0.00,0.00,0.00,11.86,0.00,0.00,2.02,18.31,0.00,3.28,1.68,3.21,0.00,0.00,0.13
0,29.69,24.05,0.00,8.03,14.52,0.00,0.00,2.18,22.84,0.00,0.00,4.23,13.64,0.00,12.33,1.86,0.00,0.00,0.00,0.00,11.68,0.00,0.00,1.94,18.05,0.00,3.28,1.62,3.21,0.00,0.00,0.13
0,29.36,24.05,0.00,8.08,14.93,0.00,0.00,2.26,22.24,0.00,0.00,4.13,13.44,0.00,12.33,1.81,0.00,0.00,0.00,0.00,11.62,0.00,0.00,1.93,18.30,0.00,4.92,1.71,3.26,0.00,0.00,0.13
0,29.98,24.05,0.00,8.53,14.89,0.00,0.00,2.24,22.36,0.00,0.00,4.10,13.59,0.00,12.33,1.83,0.00,0.00,0.00,0.00,11.54,0.00,0.00,2.01,18.78,0.00,4.92,1.80,3.28,0.00,0.00,0.13
0,30.26,25.32,0.00,8.79,15.11,0.00,0.00,2.35,22.25,0.00,0.00,4.03,13.76,0.00,12.33,1.86,0.00,0.00,0.00,0.00,11.25,0.00,0.00,1.89,18.38,0.00,1.64,1.73,3.33,0.00,0.00,0.14
0,30.03,25.32,0.00,8.75,15.09,0.00,0.00,2.34,22.00,0.00,0.00,3.97,13.51,0.00,12.33,1.83,0.00,0.00,0.00,0.00,11.40,0.00,0.00,1.93,18.63,0.00,1.64,1.76,3.44,0.00,0.00,0.14
0,30.49,25.32,0.00,8.81,15.16,0.00,0.00,2.37,22.43,0.00,0.00,4.16,13.36,0.00,10.96,1.77,0.00,0.00,0.00,0.00,11.17,0.00,0.00,1.86,18.44,0.00,1.64,1.73,3.56,0.00,0.00,0.15
0,29.34,24.05,0.00,8.46,15.14,0.00,0.00,2.32,22.35,0.00,0.00,4.22,13.58,0.00,10.96,1.83,0.00,0.00,0.00,0.00,10.99,0.00,0.00,1.84,18.31,0.00,1.64,1.69,3.55,0.00,0.00,0.15
0,30.11,26.58,0.00,8.78,15.35,0.00,0.00,2.38,21.17,0.00,0.00,3.80,13.84,0.00,12.33,1.86,0.00,0.00,0.00,0.00,11.27,0.00,0.00,1.89,18.04,0.00,1.64,1.66,3.57,0.00,0.00,0.15
0,28.93,24.05,0.00,8.23,16.00,0.00,0.00,2.52,21.33,0.00,0.00,3.87,13.81,0.00,10.96,1.79,0.00,0.00,0.00,0.00,11.42,0.00,0.00,1.89,18.06,0.00,1.64,1.65,3.64,0.00,0.00,0.15
0,28.85,22.78,0.00,7.99,15.90,0.00,0.00,2.52,21.60,0.00,0.00,3.86,13.91,0.00,10.96,1.83,0.00,0.00,0.00,0.00,12.03,0.00,0.00,2.04,17.68,0.00,1.64,1.66,3.57,0.00,0.00,0.15
0,27.92,18.99,0.00,7.45,16.00,0.00,0.00,2.58,21.66,0.00,0.00,3.87,14.04,0.00,10.96,1.80,0.00,0.00,0.00,0.00,11.81,0.00,0.00,1.91,17.06,0.00,1.64,1.59,3.47,0.00,0.00,0.14
0,28.98,22.78,0.00,8.00,15.32,0.00,0.00,2.36,21.48,0.00,0.00,3.70,13.95,0.00,10.96,1.80,0.00,0.00,0.00,0.00,11.45,0.00,0.00,1.79,16.41,0.00,1.64,1.48,3.40,0.00,0.00,0.14
0,30.28,25.32,0.00,8.57,14.91,0.00,0.00,2.28,21.69,0.00,0.00,3.61,14.32,0.00,13.70,1.87,0.00,0.00,0.00,0.00,11.85,0.00,0.00,1.90,16.21,0.00,1.64,1.48,3.24,0.00,0.00,0.13
0,31.82,27.85,2.00,9.29,14.77,0.00,0.00,2.27,21.29,0.00,0.00,3.42,14.67,0.00,15.07,2.03,0.00,0.00,0.00,0.00,11.78,0.00,0.00,1.86,16.21,0.00,1.64,1.49,3.30,0.00,0.00,0.13
0,31.69,26.58,2.00,9.43,14.59,0.00,0.00,2.20,21.28,0.00,0.00,3.40,14.58,0.00,13.70,1.96,0.00,0.00,0.00,0.00,11.84,0.00,0.00,1.89,16.71,0.00,1.64,1.56,3.10,0.00,0.00,0.11
0,32.54,26.58,2.00,9.68,14.86,0.00,0.00,2.24,21.93,0.00,0.00,3.49,14.46,0.00,13.70,1.93,0.00,0.00,0.00,0.00,11.90,0.00,0.00,1.93,16.89,0.00,1.64,1.59,3.05,0.00,0.00,0.11
0,31.95,26.58,2.00,9.59,14.69,0.00,0.00,2.25,21.66,0.00,0.00,3.43,14.18,0.00,13.70,1.89,0.00,0.00,0.00,0.00,11.79,0.00,0.00,1.91,16.80,0.00,1.64,1.59,3.15,0.00,0.00,0.12
0,32.60,29.11,2.00,9.87,15.54,0.00,0.00,2.43,21.27,0.00,0.00,3.32,14.55,0.00,15.07,1.97,0.00,0.00,0.00,0.00,12.28,0.00,0.00,2.03,16.75,0.00,1.64,1.54,3.17,0.00,0.00,0.11
0,32.60,29.11,2.00,9.96,15.44,0.00,0.00,2.48,21.29,0.00,0.00,3.41,14.77,0.00,16.44,1.97,0.00,0.00,0.00,0.00,12.11,0.00,0.00,2.02,16.53,0.00,1.64,1.54,3.28,0.00,0.00,0.12
0,32.08,27.85,2.00,9.79,16.00,0.00,0.00,2.57,21.09,0.00,0.00,3.40,14.34,0.00,16.44,1.90,0.00,0.00,0.00,0.00,12.09,0.00,0.00,2.01,17.18,0.00,3.28,1.65,3.30,0.00,0.00,0.12
0,31.41,26.58,2.00,9.59,15.67,0.00,0.00,2.44,21.24,0.00,0.00,3.48,13.85,0.00,15.07,1.73,0.00,0.00,0.00,0.00,11.98,0.00,0.00,1.99,17.00,0.00,3.28,1.62,3.35,0.00,0.00,0.12
0,32.93,29.11,2.00,10.32,15.77,0.00,0.00,2.46,21.08,0.00,0.00,3.42,14.15,0.00,17.81,1.80,0.00,0.00,0.00,0.00,12.42,0.00,0.00,2.11,17.51,0.00,3.28,1.69,3.45,0.00,0.00,0.12
0,33.59,29.11,2.00,10.45,15.76,0.00,0.00,2.50,21.17,0.00,0.00,3.28,14.53,0.00,17.81,1.86,0.00,0.00,0.00,0.00,12.84,0.00,0.00,2.21,17.00,0.00,1.64,1.62,3.34,0.00,0.00,0.12
0,33.74,30.38,4.00,10.62,16.33,0.00,0.00,2.69,21.20,0.00,0.00,3.28,14.59,0.00,17.81,1.87,0.00,0.00,0.00,0.00,13.38,0.00,0.00,2.48,17.14,0.00,1.64,1.69,3.29,0.00,0.00,0.11
0,33.76,29.11,4.00,10.36,16.09,0.00,0.00,2.58,21.17,0.00,0.00,3.27,14.54,0.00,17.81,1.82,0.00,0.00,0.00,0.00,13.77,0.00,0.00,2.56,17.15,0.00,1.64,1.63,3.28,0.00,0.00,0.11
0,33.81,27.85,4.00,10.19,16.37,0.00,0.00,2.61,21.46,0.00,0.00,3.30,14.81,0.00,17.81,1.85,0.00,0.00,0.00,0.00,13.60,0.00,0.00,2.59,17.15,0.00,1.64,1.65,3.34,0.00,0.00,0.11
0,34.03,29.11,4.00,10.39,15.99,0.00,0.00,2.58,21.57,0.00,0.00,3.31,14.49,0.00,16.44,1.80,0.00,0.00,0.00,0.00,13.91,0.00,0.00,2.62,16.96,0.00,1.64,1.64,3.25,0.00,0.00,0.11
0,34.71,30.38,4.00,10.72,15.87,0.00,0.00,2.58,21.54,0.00,0.00,3.18,14.26,0.00,16.44,1.77,0.00,0.00,0.00,0.00,14.38,0.00,0.00,2.80,17.84,0.00,3.28,1.84,3.29,0.00,0.00,0.11
0,33.71,27.85,4.00,10.50,15.93,0.00,0.00,2.56,22.15,0.00,0.00,3.38,14.20,0.00,16.44,1.75,0.00,0.00,0.00,0.00,13.95,0.00,0.00,2.71,18.10,0.00,3.28,1.84,3.31,0.00,0.00,0.11
0,33.67,27.85,4.00,10.39,15.35,0.00,0.00,2.44,21.94,0.00,0.00,3.38,14.12,0.00,16.44,1.77,0.00,0.00,0.00,0.00,13.80,0.00,0.00,2.67,18.48,0.00,4.92,1.91,3.21,0.00,0.00,0.11
0,33.93,27.85,4.00,10.49,15.54,0.00,0.00,2.45,21.69,0.00,0.00,3.38,14.00,0.00,16.44,1.71,0.00,0.00,0.00,0.00,13.20,0.00,0.00,2.54,18.60,0.00,6.56,1.93,3.27,0.00,0.00,0.11
0,33.59,29.11,4.00,10.49,15.00,0.00,0.00,2.30,21.81,0.00,0.00,3.45,13.51,0.00,15.07,1.61,0.00,0.00,0.00,0.00,12.82,0.00,0.00,2.44,18.75,0.00,6.56,1.91,3.27,0.00,0.00,0.11
0,32.21,25.32,4.00,9.89,15.62,0.00,0.00,2.36,22.16,0.00,0.00,3.61,13.35,0.00,15.07,1.58,0.00,0.00,0.00,0.00,12.94,0.00,0.00,2.43,19.54,0.00,8.20,1.98,3.28,0.00,0.00,0.11
0,31.19,22.78,4.00,9.10,15.74,0.00,0.00,2.42,21.61,0.00,0.00,3.45,13.14,0.00,12.33,1.55,0.00,0.00,0.00,0.00,12.87,0.00,0.00,2.40,20.20,0.00,8.20,2.13,3.29,0.00,0.00,0.11
0,30.04,18.99,2.00,8.62,15.48,0.00,0.00,2.39,22.42,0.00,0.00,3.81,13.09,0.00,12.33,1.53,0.00,0.00,0.00,0.00,13.19,0.00,0.00,2.59,20.10,0.00,8.20,2.13,3.28,0.00,0.00,0.11
0,29.31,17.72,2.00,8.21,15.65,0.00,0.00,2.43,22.89,0.00,0.00,3.86,13.14,0.00,12.33,1.52,0.00,0.00,0.00,0.00,12.91,0.00,0.00,2.45,19.94,0.00,8.20,2.11,3.26,0.00,0.00,0.11
0,28.67,16.46,2.00,8.20,15.59,0.00,0.00,2.30,23.01,0.00,0.00,3.98,13.27,0.00,12.33,1.51,0.00,0.00,0.00,0.00,12.88,0.00,0.00,2.52,19.86,0.00,8.20,2.11,3.22,0.00,0.00,0.11
0,29.44,16.46,2.00,8.39,15.57,0.00,0.00,2.23,23.81,0.00,0.00,4.43,12.84,0.00,9.59,1.41,0.00,0.00,0.00,0.00,12.64,0.00,0.00,2.45,19.84,0.00,8.20,2.04,3.12,0.00,0.00,0.10
0,30.52,17.72,2.00,8.63,15.13,0.00,0.00,2.15,23.86,0.00,0.00,4.46,12.48,0.00,6.85,1.33,0.00,0.00,0.00,0.00,12.87,0.00,0.00,2.48,19.91,0.00,8.20,2.07,3.11,0.00,0.00,0.10
0,30.06,16.46,4.00,8.21,15.26,0.00,0.00,2.09,23.95,0.00,0.00,4.45,12.36,0.00,5.48,1.37,0.00,0.00,0.00,0.00,13.01,0.00,0.00,2.53,20.12,0.00,8.20,2.11,3.03,0.00,0.00,0.10
0,30.54,16.46,4.00,8.38,14.80,0.00,0.00,2.06,24.10,0.00,0.00,4.45,12.39,0.00,5.48,1.41,0.00,0.00,0.00,0.00,12.53,0.00,0.00,2.44,19.89,0.00,6.56,2.10,3.02,0.00,0.00,0.10
0,31.56,18.99,4.00,8.81,14.76,0.00,0.00,2.07,24.28,0.00,0.00,4.44,12.69,0.00,6.85,1.54,0.00,0.00,0.00,0.00,12.88,0.00,0.00,2.52,21.20,0.00,8.20,2.42,3.00,0.00,0.00,0.10
0,31.49,18.99,6.00,8.48,14.91,0.00,0.00,2.11,24.69,0.00,0.00,4.62,12.64,0.00,5.48,1.51,0.00,0.00,0.00,0.00,12.98,0.00,0.00,2.53,20.77,0.00,9.84,2.38,2.92,0.00,0.00,0.09
0,32.07,20.25,6.00,8.78,14.62,0.00,0.00,2.03,24.46,0.00,0.00,4.61,12.56,0.00,5.48,1.48,0.00,0.00,0.00,0.00,12.86,0.00,0.00,2.50,20.46,0.00,9.84,2.33,3.00,0.00,0.00,0.10
0,30.52,17.72,4.00,7.98,14.11,0.00,0.00,1.88,24.12,0.00,0.00,4.55,12.47,0.00,6.85,1.53,0.00,0.00,0.00,0.00,12.57,0.00,0.00,2.41,20.96,0.00,11.48,2.46,3.01,0.00,0.00,0.10
0,31.60,20.25,6.00,8.38,14.37,0.00,0.00,1.90,23.85,0.00,0.00,4.52,12.71,0.00,8.22,1.62,0.00,0.00,0.00,0.00,12.05,0.00,0.00,2.27,20.67,0.00,11.48,2.40,3.09,0.00,0.00,0.10
0,32.22,21.52,6.00,8.92,14.74,0.00,0.00,1.98,23.49,0.00,0.00,4.46,12.96,0.00,9.59,1.73,0.00,0.00,0.00,0.00,12.24,0.00,0.00,2.24,20.96,0.00,11.48,2.48,2.94,0.00,0.00,0.10
0,34.02,24.05,10.00,10.28,14.94,0.00,0.00,1.99,23.11,0.00,0.00,4.37,13.22,0.00,9.59,1.83,0.00,0.00,0.00,0.00,12.41,0.00,0.00,2.27,21.03,0.00,11.48,2.45,3.06,0.00,0.00,0.10
0,34.03,24.05,10.00,10.77,15.08,0.00,0.00,1.99,23.67,0.00,0.00,4.48,13.49,0.00,9.59,1.83,0.00,0.00,0.00,0.00,12.18,0.00,0.00,2.32,20.49,0.00,9.84,2.30,2.96,0.00,0.00,0.10
0,34.83,24.05,10.00,10.88,14.77,0.00,0.00,1.95,23.24,0.00,0.00,4.46,13.38,0.00,9.59,1.81,0.00,0.00,0.00,0.00,12.39,0.00,0.00,2.33,20.02,0.00,9.84,2.24,2.99,0.00,0.00,0.10
0,34.39,24.05,10.00,10.69,14.90,0.00,0.00,1.96,22.90,0.00,0.00,4.22,13.67,0.00,10.96,1.87,0.00,0.00,0.00,0.00,12.54,0.00,0.00,2.37,19.81,0.00,9.84,2.20,2.96,0.00,0.00,0.10
0,34.89,24.05,10.00,11.15,14.90,0.00,0.00,2.00,23.04,0.00,0.00,4.22,13.81,0.00,10.96,1.99,0.00,0.00,0.00,0.00,12.60,0.00,0.00,2.41,20.09,0.00,9.84,2.23,2.84,0.00,0.00,0.09
0,34.61,24.05,10.00,11.15,15.91,0.00,0.00,2.35,22.42,0.00,0.00,4.03,13.69,0.00,10.96,1.96,0.00,0.00,0.00,0.00,12.67,0.00,0.00,2.42,20.58,0.00,9.84,2.29,2.87,0.00,0.00,0.10
0,35.64,25.32,10.00,11.58,15.60,0.00,0.00,2.35,22.73,0.00,0.00,4.00,13.78,0.00,10.96,1.98,0.00,0.00,0.00,0.00,12.64,0.00,0.00,2.43,20.35,0.00,11.48,2.28,2.86,0.00,0.00,0.09
0,36.24,25.32,10.00,12.10,15.51,0.00,0.00,2.36,22.72,0.00,0.00,4.06,13.55,0.00,10.96,1.96,0.00,0.00,0.00,0.00,13.04,0.00,0.00,2.58,19.41,0.00,11.48,2.14,2.88,0.00,0.00,0.10
0,37.00,26.58,10.00,12.43,15.64,0.00,0.00,2.37,21.54,0.00,0.00,3.71,13.71,0.00,10.96,2.09,0.00,0.00,0.00,0.00,12.82,0.00,0.00,2.42,19.52,0.00,11.48,2.14,2.91,0.00,0.00,0.10
0,36.76,26.58,10.00,12.26,15.44,0.00,0.00,2.30,20.88,0.00,0.00,3.56,13.72,0.00,10.96,2.12,0.00,0.00,0.00,0.00,12.98,0.00,0.00,2.43,19.53,0.00,11.48,2.17,3.00,0.00,0.00,0.10
0,36.75,27.85,12.00,12.20,15.43,0.00,0.00,2.54,21.55,0.00,0.00,4.03,13.99,0.00,13.70,2.26,0.00,0.00,0.00,0.00,13.22,0.00,0.00,2.43,19.25,0.00,11.48,2.14,3.01,0.00,0.00,0.10
0,36.33,27.85,12.00,12.25,15.55,0.00,0.00,2.55,20.64,0.00,0.00,3.52,14.15,0.00,13.70,2.28,0.00,0.00,0.00,0.00,13.56,0.00,0.00,2.46,19.76,0.00,11.48,2.24,2.97,0.00,0.00,0.10
0,35.53,27.85,12.00,12.20,15.03,0.00,0.00,2.44,21.61,0.00,0.00,3.93,13.96,0.00,13.70,2.22,0.00,0.00,0.00,0.00,13.68,0.00,0.00,2.49,19.60,0.00,13.11,2.24,2.95,0.00,0.00,0.10
0,34.72,26.58,10.00,11.86,15.35,0.00,0.00,2.52,22.38,0.00,0.00,4.26,13.96,0.00,13.70,2.19,0.00,0.00,0.00,0.00,13.83,0.00,0.00,2.59,19.66,0.00,13.11,2.19,2.98,0.00,0.00,0.10
0,33.84,26.58,10.00,11.54,15.16,0.00,0.00,2.43,23.20,0.00,0.00,4.48,14.41,0.00,16.44,2.27,0.00,0.00,0.00,0.00,13.75,0.00,0.00,2.55,19.64,0.00,13.11,2.20,2.97,0.00,0.00,0.10
0,33.40,25.32,10.00,11.52,15.11,0.00,0.00,2.41,23.28,0.00,0.00,4.57,14.54,0.00,17.81,2.27,0.00,0.00,0.00,0.00,14.04,0.00,0.00,2.68,19.10,0.00,11.48,1.98,3.00,0.00,0.00,0.10
0,32.69,22.78,8.00,11.44,15.35,0.00,0.00,2.53,23.28,0.00,0.00,4.37,14.35,0.00,16.44,2.23,0.00,0.00,0.00,0.00,13.64,0.00,0.00,2.56,19.14,0.00,13.11,1.92,2.95,0.00,0.00,0.10
0,31.64,20.25,8.00,10.65,15.18,0.00,0.00,2.40,23.47,0.00,0.00,4.46,14.72,0.00,16.44,2.30,0.00,0.00,0.00,0.00,13.07,0.00,0.00,2.36,19.54,0.00,13.11,1.97,2.89,0.00,0.00,0.10
0,31.46,20.25,8.00,10.60,15.58,0.00,0.00,2.53,23.77,0.00,0.00,4.46,14.63,0.00,16.44,2.26,0.00,0.00,0.00,0.00,12.96,0.00,0.00,2.35,18.68,0.00,11.48,1.81,2.81,0.00,0.00,0.09
0,31.97,21.52,8.00,11.03,15.74,0.00,0.00,2.62,23.79,0.00,0.00,4.45,14.15,0.00,15.07,2.14,0.00,0.00,0.00,0.00,13.44,0.00,0.00,2.48,18.92,0.00,11.48,1.83,2.74,0.00,0.00,0.09
0,31.04,20.25,6.00,10.33,15.45,0.00,0.00,2.55,23.78,0.00,0.00,4.52,13.79,0.00,13.70,2.03,0.00,0.00,0.00,0.00,13.29,0.00,0.00,2.47,19.62,0.00,13.11,1.96,2.80,0.00,0.00,0.09
0,30.17,18.99,4.00,9.74,15.48,0.00,0.00,2.59,23.90,0.00,0.00,4.55,13.60,0.00,13.70,1.92,0.00,0.00,0.00,0.00,13.16,0.00,0.00,2.42,19.73,0.00,13.11,1.98,2.77,0.00,0.00,0.09
0,28.36,15.19,2.00,8.06,15.15,0.00,0.00,2.57,22.85,0.00,0.00,4.24,13.59,0.00,13.70,1.93,0.00,0.00,0.00,0.00,13.13,0.00,0.00,2.39,20.34,0.00,14.75,2.10,2.73,0.00,0.00,0.09
0,28.18,15.19,2.00,7.94,15.67,0.00,0.00,2.66,22.71,0.00,0.00,4.13,14.06,0.00,13.70,2.09,0.00,0.00,0.00,0.00,13.04,0.00,0.00,2.33,21.12,0.00,14.75,2.16,2.81,0.00,0.00,0.10
0,30.07,17.72,2.00,9.03,15.71,0.00,0.00,2.76,23.23,0.00,0.00,4.38,14.07,0.00,13.70,2.09,0.00,0.00,0.00,0.00,13.31,0.00,0.00,2.46,21.01,0.00,13.11,2.13,2.83,0.00,0.00,0.09
0,30.39,18.99,2.00,9.31,15.67,0.00,0.00,2.73,23.37,0.00,0.00,4.41,14.14,0.00,15.07,2.08,0.00,0.00,0.00,0.00,13.33,0.00,0.00,2.44,20.95,0.00,13.11,2.10,2.89,0.00,0.00,0.10
0,29.26,16.46,2.00,8.41,15.40,0.00,0.00,2.56,23.42,0.00,0.00,4.42,14.35,0.00,16.44,2.17,0.00,0.00,0.00,0.00,13.97,0.00,0.00,2.60,21.12,0.00,13.11,2.19,2.93,0.00,0.00,0.10
0,29.71,17.72,4.00,8.60,15.87,0.00,0.00,2.62,22.83,0.00,0.00,4.29,14.66,0.00,17.81,2.28,0.00,0.00,0.00,0.00,13.88,0.00,0.00,2.58,20.61,0.00,9.84,2.13,2.92,0.00,0.00,0.10
0,28.81,17.72,4.00,8.00,15.67,0.00,0.00,2.64,22.35,0.00,0.00,4.14,14.92,0.00,17.81,2.34,0.00,0.00,0.00,0.00,13.86,0.00,0.00,2.59,21.23,0.00,9.84,2.19,3.02,0.00,0.00,0.10
0,29.05,17.72,4.00,8.03,16.11,0.00,0.00,2.69,22.86,0.00,0.00,4.39,14.33,0.00,16.44,2.09,0.00,0.00,0.00,0.00,13.58,0.00,0.00,2.48,21.62,0.00,9.84,2.23,3.00,0.00,0.00,0.10
0,29.95,20.25,4.00,8.36,16.11,0.00,0.00,2.71,23.53,0.00,0.00,4.41,14.54,0.00,17.81,2.12,0.00,0.00,0.00,0.00,13.48,0.00,0.00,2.45,21.02,0.00,9.84,2.12,2.83,0.00,0.00,0.09
0,31.00,22.78,4.00,8.80,15.53,0.00,0.00,2.48,22.88,0.00,0.00,3.89,14.78,0.00,16.44,2.22,0.00,0.00,0.00,0.00,13.31,0.00,0.00,2.47,21.19,0.00,9.84,2.11,2.91,0.00,0.00,0.09
0,29.35,20.25,2.00,8.25,15.51,0.00,0.00,2.47,23.52,0.00,0.00,3.92,14.87,0.00,16.44,2.19,0.00,0.00,0.00,0.00,13.23,0.00,0.00,2.44,21.15,0.00,9.84,2.06,2.99,0.00,0.00,0.10
0,29.45,20.25,2.00,8.33,15.84,0.00,0.00,2.51,22.50,0.00,0.00,3.56,14.91,0.00,16.44,2.23,0.00,0.00,0.00,0.00,12.84,0.00,0.00,2.39,20.78,0.00,8.20,2.01,2.91,0.00,0.00,0.10
0,28.33,17.72,2.00,7.78,15.97,0.00,0.00,2.48,21.58,0.00,0.00,3.16,15.02,0.00,17.81,2.30,0.00,0.00,0.00,0.00,12.70,0.00,0.00,2.37,20.50,0.00,8.20,1.99,2.97,0.00,0.00,0.10
0,29.35,18.99,2.00,8.18,16.65,0.00,0.00,2.63,20.56,0.00,0.00,3.00,14.77,0.00,16.44,2.23,0.00,0.00,0.00,0.00,12.53,0.00,0.00,2.29,20.68,0.00,9.84,1.98,2.91,0.00,0.00,0.10
0,30.36,21.52,2.00,8.55,16.80,0.00,0.00,2.67,20.43,0.00,0.00,2.86,14.51,0.00,13.70,2.14,0.00,0.00,0.00,0.00,12.44,0.00,0.00,2.22,20.46,0.00,9.84,1.95,2.88,0.00,0.00,0.10
0,29.31,20.25,2.00,7.97,16.49,0.00,0.00,2.57,20.78,0.00,0.00,2.98,14.43,0.00,13.70,2.13,0.00,0.00,0.00,0.00,12.61,0.00,0.00,2.24,20.47,0.00,8.20,2.01,2.94,0.00,0.00,0.10
0,31.30,22.78,2.00,8.95,16.08,0.00,0.00,2.52,21.84,0.00,0.00,3.45,14.18,0.00,13.70,2.08,0.00,0.00,0.00,0.00,13.14,0.00,0.00,2.43,20.67,0.00,8.20,2.13,3.01,0.00,0.00,0.11
0,32.23,24.05,2.00,10.06,16.06,0.00,0.00,2.51,21.11,0.00,0.00,3.32,14.32,0.00,16.44,2.13,0.00,0.00,0.00,0.00,13.05,0.00,0.00,2.34,20.77,0.00,8.20,2.14,3.04,0.00,0.00,0.11
0,31.03,22.78,2.00,9.66,15.64,0.00,0.00,2.31,21.51,0.00,0.00,3.48,14.46,0.00,16.44,2.14,0.00,0.00,0.00,0.00,12.54,0.00,0.00,2.16,20.88,0.00,8.20,2.17,3.05,0.00,0.00,0.11
0,31.33,25.32,2.00,9.47,15.34,0.00,0.00,2.29,21.71,0.00,0.00,3.55,14.71,0.00,16.44,2.19,0.00,0.00,0.00,0.00,12.92,0.00,0.00,2.28,20.01,0.00,6.56,2.01,3.03,0.00,0.00,0.11
0,32.75,26.58,2.00,10.65,15.41,0.00,0.00,2.30,21.91,0.00,0.00,3.55,15.13,0.00,17.81,2.28,0.00,0.00,0.00,0.00,13.10,0.00,0.00,2.31,19.68,0.00,6.56,1.97,3.03,0.00,0.00,0.11
0,33.38,29.11,2.00,10.91,15.41,0.00,0.00,2.24,22.21,0.00,0.00,3.69,14.90,0.00,17.81,2.25,0.00,0.00,0.00,0.00,13.12,0.00,0.00,2.35,19.31,0.00,6.56,1.93,3.09,0.00,0.00,0.11
0,34.48,30.38,2.00,11.54,15.21,0.00,0.00,2.22,22.29,0.00,0.00,3.69,14.12,0.00,16.44,2.03,0.00,0.00,0.00,0.00,13.15,0.00,0.00,2.35,18.72,0.00,6.56,1.85,2.97,0.00,0.00,0.10
0,33.43,29.11,2.00,10.88,14.73,0.00,0.00,2.07,21.70,0.00,0.00,3.47,13.88,0.00,15.07,1.94,0.00,0.00,0.00,0.00,12.83,0.00,0.00,2.22,18.33,0.00,6.56,1.81,3.00,0.00,0.00,0.10
0,33.93,29.11,2.00,10.87,14.51,0.00,0.00,1.99,21.32,0.00,0.00,3.47,14.29,0.00,15.07,2.05,0.00,0.00,0.00,0.00,13.22,0.00,0.00,2.35,18.11,0.00,4.92,1.80,3.06,0.00,0.00,0.10
0,35.09,29.11,2.00,11.52,14.25,0.00,0.00,1.92,22.12,0.00,0.00,3.57,14.62,0.00,15.07,2.13,0.00,0.00,0.00,0.00,13.14,0.00,0.00,2.36,17.44,0.00,4.92,1.66,2.98,0.00,0.00,0.10
0,34.31,27.85,0.00,11.30,14.19,0.00,0.00,1.97,22.69,0.00,0.00,3.90,14.49,0.00,13.70,2.08,0.00,0.00,0.00,0.00,13.11,0.00,0.00,2.33,17.78,0.00,4.92,1.68,3.06,0.00,0.00,0.11
0,35.43,30.38,0.00,11.63,13.66,0.00,0.00,1.84,23.48,0.00,0.00,4.08,14.53,0.00,15.07,2.09,0.00,0.00,0.00,0.00,12.77,0.00,0.00,2.27,17.35,0.00,4.92,1.61,3.11,0.00,0.00,0.11
0,35.24,30.38,0.00,11.46,13.36,0.00,0.00,1.77,23.70,0.00,0.00,4.06,14.72,0.00,15.07,2.13,0.00,0.00,0.00,0.00,13.28,0.00,0.00,2.34,17.07,0.00,4.92,1.57,3.09,0.00,0.00,0.11
0,34.87,30.38,0.00,11.42,13.49,0.00,0.00,1.84,23.73,0.00,0.00,4.15,14.87,0.00,16.44,2.14,0.00,0.00,0.00,0.00,14.02,0.00,0.00,2.59,17.47,0.00,4.92,1.67,3.29,0.00,0.00,0.12
0,34.75,27.85,0.00,11.42,13.98,0.00,0.00,1.93,23.52,0.00,0.00,4.15,14.27,0.00,15.07,1.93,0.00,0.00,0.00,0.00,14.07,0.00,0.00,2.59,17.75,0.00,4.92,1.67,3.20,0.00,0.00,0.12
0,36.03,30.38,0.00,11.86,14.62,0.00,0.00,2.00,23.96,0.00,0.00,4.44,14.41,0.00,15.07,1.96,0.00,0.00,0.00,0.00,13.96,0.00,0.00,2.60,18.11,0.00,6.56,1.78,3.03,0.00,0.00,0.11
0,37.88,32.91,0.00,12.61,14.46,0.00,0.00,2.00,23.73,0.00,0.00,4.42,14.67,0.00,16.44,2.01,0.00,0.00,0.00,0.00,14.37,0.00,0.00,2.72,18.73,0.00,8.20,1.89,3.00,0.00,0.00,0.11
0,38.24,32.91,0.00,12.68,14.12,0.00,0.00,1.93,24.38,0.00,0.00,4.54,14.90,0.00,15.07,2.07,0.00,0.00,0.00,0.00,14.28,0.00,0.00,2.64,19.02,0.00,8.20,1.93,2.99,0.00,0.00,0.10
0,38.92,34.18,2.00,12.93,13.57,0.00,0.00,1.82,24.53,0.00,0.00,4.59,14.53,0.00,13.70,1.99,0.00,0.00,0.00,0.00,14.17,0.00,0.00,2.65,18.71,0.00,6.56,1.90,3.06,0.00,0.00,0.11
0,37.54,31.65,2.00,12.45,13.92,0.00,0.00,1.90,24.40,0.00,0.00,4.49,14.49,0.00,13.70,1.97,0.00,0.00,0.00,0.00,14.28,0.00,0.00,2.65,19.06,0.00,6.56,1.94,3.08,0.00,0.00,0.11
0,37.35,31.65,2.00,12.41,14.18,0.00,0.00,1.93,24.21,0.00,0.00,4.36,14.56,0.00,13.70,1.99,0.00,0.00,0.00,0.00,14.21,0.00,0.00,2.70,18.66,0.00,4.92,1.82,3.03,0.00,0.00,0.10
0,37.16,32.91,2.00,12.11,14.84,0.00,0.00,2.13,22.51,0.00,0.00,3.84,14.83,0.00,15.07,2.04,0.00,0.00,0.00,0.00,14.15,0.00,0.00,2.61,18.86,0.00,6.56,1.77,3.04,0.00,0.00,0.10
0,35.82,31.65,2.00,11.09,15.19,0.00,0.00,2.26,22.98,0.00,0.00,3.88,14.65,0.00,12.33,1.97,0.00,0.00,0.00,0.00,14.22,0.00,0.00,2.64,19.69,0.00,6.56,1.86,3.17,0.00,0.00,0.11
0,36.10,31.65,2.00,11.11,15.49,0.00,0.00,2.32,23.37,0.00,0.00,3.94,14.76,0.00,12.33,2.00,0.00,0.00,0.00,0.00,14.51,0.00,0.00,2.72,19.26,0.00,6.56,1.79,3.14,0.00,0.00,0.11
0,37.23,31.65,4.00,12.19,15.57,0.00,0.00,2.37,22.88,0.00,0.00,3.77,15.25,0.00,13.70,2.11,0.00,0.00,0.00,0.00,14.55,0.00,0.00,2.80,19.78,0.00,6.56,1.90,3.10,0.00,0.00,0.11
0,35.73,27.85,4.00,10.97,16.02,0.00,0.00,2.49,22.82,0.00,0.00,3.78,15.01,0.00,12.33,2.04,0.00,0.00,0.00,0.00,14.41,0.00,0.00,2.73,19.86,0.00,6.56,1.88,3.01,0.00,0.00,0.11
0,36.34,27.85,6.00,11.55,16.23,0.00,0.00,2.59,22.83,0.00,0.00,3.78,15.32,0.00,13.70,2.08,0.00,0.00,0.00,0.00,14.00,0.00,0.00,2.57,19.38,0.00,4.92,1.84,3.04,0.00,0.00,0.11
0,35.51,26.58,6.00,11.35,17.00,0.00,0.00,2.76,22.82,0.00,0.00,3.83,15.67,0.00,13.70,2.15,0.00,0.00,0.00,0.00,14.01,0.00,0.00,2.64,20.47,0.00,6.56,2.14,3.09,0.00,0.00,0.11
0,37.01,27.85,8.00,11.94,17.53,0.00,0.00,2.91,23.08,0.00,0.00,3.87,16.04,0.00,16.44,2.25,0.00,0.00,0.00,0.00,14.88,0.00,0.00,3.05,22.35,0.00,9.84,2.66,3.16,0.00,0.00,0.11
1,39.10,30.38,10.00,15.71,17.57,0.00,0.00,2.96,23.95,0.00,0.00,4.02,15.63,0.00,15.07,2.14,0.00,0.00,0.00,0.00,16.58,4.23,1.96,4.50,25.62,9.38,14.75,4.14,3.68,0.00,0.00,0.20
1,41.99,35.44,16.00,19.70,17.36,0.00,0.00,2.97,24.32,0.00,0.00,4.13,16.21,0.00,16.44,2.40,0.00,0.00,0.00,0.00,17.11,4.23,1.96,4.73,30.80,18.75,21.31,6.79,4.33,0.00,0.00,0.29
1,45.13,37.97,20.00,22.05,16.99,0.00,0.00,2.80,24.72,0.00,0.00,4.10,17.23,0.00,20.55,2.54,0.00,0.00,0.00,0.00,18.03,5.63,1.96,5.16,37.14,25.00,29.51,9.60,4.30,0.00,0.00,0.29
1,48.57,41.77,28.00,25.76,17.09,0.00,0.00,2.82,24.70,0.00,0.00,4.15,17.89,0.00,20.55,2.82,0.00,0.00,0.00,0.00,18.40,5.63,1.96,5.26,39.83,28.12,32.79,10.50,4.58,0.00,0.00,0.34
1,51.30,45.57,32.00,27.84,17.34,0.00,0.00,2.88,24.73,0.00,0.00,4.08,20.01,0.00,24.66,4.01,0.00,0.00,0.00,0.00,18.38,5.63,1.96,5.33,47.95,37.50,40.98,17.40,4.78,0.00,0.00,0.37
1,54.33,48.10,38.00,30.09,18.17,0.00,0.00,3.20,24.47,0.00,0.00,4.10,19.84,0.00,23.29,3.90,0.00,0.00,0.00,0.00,18.58,5.63,1.96,5.48,50.15,40.63,45.90,18.22,4.72,0.00,0.00,0.37
1,54.52,49.37,40.00,30.82,18.05,0.00,0.00,3.18,24.83,0.00,0.00,4.38,20.70,0.00,26.03,4.16,0.00,0.00,0.00,0.00,18.89,5.63,1.96,5.53,51.61,40.63,50.82,18.58,5.06,0.00,0.00,0.39
1,55.96,50.63,42.00,32.03,17.71,0.00,0.00,3.11,24.95,0.00,0.00,4.37,21.31,0.00,28.77,4.36,0.00,0.00,0.00,0.00,18.91,5.63,1.96,5.61,54.80,46.88,54.10,21.79,5.38,0.00,0.00,0.44
1,55.19,50.63,42.00,31.60,17.90,0.00,0.00,3.15,25.62,0.00,0.00,4.77,21.18,0.00,28.77,4.36,0.00,0.00,0.00,0.00,19.68,5.63,1.96,6.05,57.20,50.00,59.02,23.22,5.58,0.00,0.00,0.45
1,57.64,55.70,44.00,33.66,17.71,0.00,0.00,3.10,26.01,0.00,0.00,4.91,21.11,0.00,28.77,4.31,0.00,0.00,0.00,0.00,20.93,7.04,1.96,6.46,60.90,53.13,62.30,25.78,5.75,0.00,0.00,0.46
1,59.92,56.96,46.00,36.24,17.96,0.00,0.00,3.23,26.83,0.00,0.00,5.19,22.07,0.00,32.88,4.65,0.00,0.00,0.00,0.00,21.31,7.04,1.96,6.65,63.93,59.38,68.85,26.77,5.88,0.00,0.00,0.46
1,63.87,60.76,48.00,40.39,17.47,0.00,0.00,3.12,27.16,0.00,0.00,5.23,21.90,0.00,32.88,4.62,0.00,0.00,0.00,0.00,21.71,7.04,1.96,6.77,66.90,62.50,70.49,27.68,6.06,0.00,0.00,0.48
1,67.48,63.29,52.00,44.01,17.32,0.00,0.00,3.13,28.01,0.00,0.00,5.80,22.48,0.00,32.88,4.75,0.00,0.00,0.00,0.00,22.14,7.04,1.96,7.05,70.07,65.62,73.77,29.97,6.61,0.00,0.00,0.57
1,70.06,65.82,54.00,46.99,17.06,0.00,0.00,3.08,28.82,0.00,0.00,6.03,22.89,0.00,34.25,4.87,0.00,0.00,0.00,0.00,22.99,9.86,1.96,7.72,74.92,71.87,78.69,32.67,6.92,0.00,0.00,0.61
1,72.18,67.09,56.00,50.11,17.10,0.00,0.00,3.00,28.76,0.00,0.00,6.08,24.33,0.00,36.99,5.42,0.00,0.00,0.00,0.00,24.12,12.68,1.96,8.64,79.69,81.25,83.61,36.26,7.09,0.00,0.00,0.63
1,77.13,72.15,64.00,55.75,16.82,0.00,0.00,2.94,29.07,0.00,0.00,6.14,25.75,2.44,41.10,6.47,0.00,0.00,0.00,0.00,24.07,12.68,1.96,8.59,81.22,81.25,88.52,37.29,7.42,0.00,0.00,0.68
1,78.08,72.15,64.00,56.81,17.72,0.00,0.00,3.24,28.81,0.00,0.00,6.09,27.89,2.44,46.58,7.40,0.00,0.00,0.00,0.00,24.94,12.68,1.96,8.95,84.41,84.37,96.72,38.28,7.54,0.00,0.00,0.69
1,80.43,77.22,66.00,58.72,16.99,0.00,0.00,3.02,28.30,0.00,0.00,5.91,28.11,2.44,46.58,7.78,0.00,0.00,0.00,0.00,25.43,12.68,1.96,9.11,86.88,84.37,104.92,38.83,7.73,0.00,0.00,0.70
1,81.78,77.22,66.00,59.65,17.23,0.00,0.00,3.09,29.18,0.00,0.00,6.18,28.52,2.44,46.58,7.91,0.00,0.00,0.00,0.00,25.67,12.68,1.96,9.19,88.63,84.37,108.20,39.38,7.90,0.00,0.00,0.73
1,83.57,81.01,68.00,60.49,16.28,0.00,0.00,2.87,29.43,0.00,0.00,6.22,29.33,2.44,49.32,8.23,0.00,0.00,0.00,0.00,25.55,12.68,1.96,9.11,89.75,84.37,109.84,39.67,8.25,0.00,0.00,0.77
1,85.03,82.28,70.00,62.58,16.42,0.00,0.00,2.88,29.32,0.00,0.00,6.14,28.84,2.44,47.95,8.17,0.00,0.00,0.00,0.00,25.38,12.68,1.96,9.01,88.71,87.50,108.20,39.40,9.00,0.00,0.00,0.88
1,84.81,82.28,68.00,62.74,16.24,0.00,0.00,2.81,28.23,0.00,0.00,5.94,28.94,2.44,50.68,8.20,0.00,0.00,0.00,0.00,23.99,9.86,0.00,8.06,88.81,84.37,111.48,39.08,8.78,0.00,0.00,0.83
1,84.16,82.28,68.00,60.05,16.47,0.00,0.00,2.88,28.41,0.00,0.00,6.10,28.71,2.44,52.05,7.90,0.00,0.00,0.00,0.00,23.09,8.45,0.00,7.31,84.61,71.87,106.56,36.97,8.08,0.00,0.00,0.73
1,83.16,83.54,66.00,58.60,16.46,0.00,0.00,2.87,28.75,0.00,0.00,6.19,27.87,2.44,49.32,7.74,0.00,0.00,0.00,0.00,22.36,7.04,0.00,6.84,82.17,71.87,101.64,35.76,8.11,0.00,0.00,0.71
1,81.35,81.01,62.00,57.34,16.34,0.00,0.00,2.81,27.79,0.00,0.00,5.93,26.75,2.44,46.58,7.41,0.00,0.00,0.00,0.00,22.52,7.04,0.00,6.94,79.38,65.62,100.00,33.23,8.01,0.00,0.00,0.68
1,80.13,78.48,58.00,56.07,16.91,0.00,0.00,2.98,28.21,0.00,0.00,6.12,24.76,2.44,43.84,6.28,0.00,0.00,0.00,0.00,22.18,7.04,0.00,6.89,72.73,59.38,95.08,27.14,7.63,0.00,0.00,0.63
1,79.30,77.22,54.00,55.65,15.69,0.00,0.00,2.62,27.52,0.00,0.00,5.86,25.24,2.44,43.84,6.46,0.00,0.00,0.00,0.00,21.68,7.04,0.00,6.80,69.94,50.00,91.80,26.05,7.80,0.00,0.00,0.64
1,79.81,77.22,56.00,55.63,15.59,0.00,0.00,2.50,27.72,0.00,0.00,5.83,24.74,2.44,42.47,6.27,0.00,0.00,0.00,0.00,22.20,7.04,0.00,7.04,69.07,50.00,90.16,25.88,7.76,0.00,0.00,0.64
1,81.59,81.01,60.00,57.12,15.77,0.00,0.00,2.53,27.13,0.00,0.00,5.60,23.98,2.44,41.10,6.07,0.00,0.00,0.00,0.00,22.28,7.04,0.00,7.00,69.33,46.88,96.72,25.03,7.81,0.00,0.00,0.64
1,82.34,82.28,64.00,57.39,15.30,0.00,0.00,2.48,26.46,0.00,0.00,5.26,24.34,2.44,41.10,6.18,0.00,0.00,0.00,0.00,22.67,8.45,0.00,7.38,65.08,40.63,90.16,21.43,7.55,0.00,0.00,0.60
1,82.71,83.54,66.00,57.75,15.55,0.00,0.00,2.47,26.06,0.00,0.00,5.00,24.83,2.44,43.84,6.26,0.00,0.00,0.00,0.00,22.25,8.45,0.00,7.12,61.46,37.50,86.89,18.98,7.43,0.00,0.00,0.60
1,81.91,83.54,66.00,57.47,15.26,0.00,0.00,2.37,25.72,0.00,0.00,5.06,25.39,2.44,43.84,6.44,0.00,0.00,0.00,0.00,21.88,8.45,0.00,6.96,59.81,34.38,83.61,18.46,7.44,0.00,0.00,0.61
1,80.05,84.81,64.00,53.86,15.89,0.00,0.00,2.56,25.78,0.00,0.00,5.12,25.40,2.44,45.21,6.36,0.00,0.00,0.00,0.00,22.16,8.45,0.00,7.05,58.40,31.25,81.97,17.89,7.44,0.00,0.00,0.60
1,79.97,84.81,64.00,52.49,16.40,0.00,0.00,2.74,24.47,0.00,0.00,4.71,25.58,2.44,46.58,6.40,0.00,0.00,0.00,0.00,21.61,8.45,0.00,6.75,54.39,28.12,80.33,15.45,7.31,0.00,0.00,0.58
1,79.59,86.08,68.00,51.61,16.67,0.00,0.00,2.76,23.59,0.00,0.00,4.46,25.04,2.44,46.58,6.25,0.00,0.00,0.00,0.00,20.88,5.63,0.00,6.17,49.43,18.75,73.77,12.54,7.09,0.00,0.00,0.55
1,79.34,87.34,68.00,50.19,16.84,0.00,0.00,2.85,23.71,0.00,0.00,4.64,24.51,2.44,43.84,6.19,0.00,0.00,0.00,0.00,19.76,2.82,0.00,5.32,46.29,12.50,73.77,11.20,6.98,0.00,0.00,0.53
1,79.53,88.61,70.00,47.25,17.12,0.00,0.00,2.91,23.42,0.00,0.00,4.61,22.25,0.00,39.73,4.75,0.00,0.00,0.00,0.00,19.90,2.82,0.00,5.26,44.03,9.38,70.49,8.34,6.72,0.00,0.00,0.48
1,78.14,88.61,66.00,45.92,17.03,0.00,0.00,2.90,23.18,0.00,0.00,4.60,21.26,0.00,36.99,4.51,0.00,0.00,0.00,0.00,19.16,2.82,0.00,4.97,40.66,6.25,63.93,7.06,6.58,0.00,0.00,0.47
1,78.51,88.61,68.00,45.96,16.94,0.00,0.00,2.90,23.81,0.00,0.00,4.78,20.08,0.00,35.62,3.55,0.00,0.00,0.00,0.00,19.21,2.82,0.00,4.89,39.94,6.25,59.02,6.97,6.59,0.00,0.00,0.49
1,77.64,89.87,68.00,44.55,16.64,0.00,0.00,2.83,23.71,0.00,0.00,4.74,19.63,0.00,34.25,3.38,0.00,0.00,0.00,0.00,19.51,2.82,0.00,4.95,39.25,6.25,57.38,6.70,6.66,0.00,0.00,0.49
1,78.57,92.41,70.00,44.92,16.73,0.00,0.00,2.81,23.57,0.00,0.00,4.95,18.91,0.00,31.51,3.08,0.00,0.00,0.00,0.00,20.71,4.23,0.00,5.24,38.50,6.25,57.38,6.21,6.56,0.00,0.00,0.49
1,78.45,92.41,70.00,44.77,16.43,0.00,0.00,2.69,23.96,0.00,0.00,5.24,19.12,0.00,30.14,3.19,0.00,0.00,0.00,0.00,23.26,8.45,1.96,8.89,37.77,3.12,54.10,5.94,6.07,0.00,0.00,0.39
1,77.62,89.87,70.00,43.59,16.14,0.00,0.00,2.66,23.98,0.00,0.00,5.25,19.19,0.00,27.40,3.19,0.00,0.00,0.00,0.00,23.96,9.86,1.96,9.84,37.10,0.00,52.46,5.73,6.23,0.00,0.00,0.40
1,75.25,87.34,66.00,41.71,16.18,0.00,0.00,2.66,24.10,0.00,0.00,5.29,19.16,0.00,26.03,3.24,0.00,0.00,0.00,0.00,23.56,9.86,1.96,9.74,37.43,0.00,54.10,5.92,6.42,0.00,0.00,0.43
1,74.88,87.34,64.00,41.00,16.21,0.00,0.00,2.65,23.48,0.00,0.00,4.96,19.00,0.00,26.03,3.14,0.00,0.00,0.00,0.00,24.84,12.68,3.92,11.03,37.38,0.00,50.82,5.89,6.31,0.00,0.00,0.42
1,74.77,88.61,66.00,40.27,16.02,0.00,0.00,2.62,23.92,0.00,0.00,5.26,19.45,0.00,27.40,3.23,0.00,0.00,0.00,0.00,25.80,14.08,3.92,11.94,37.07,0.00,54.10,5.98,6.40,0.00,0.00,0.43
1,74.77,88.61,66.00,40.05,16.17,0.00,0.00,2.60,24.51,0.00,0.00,5.45,19.95,0.00,28.77,3.29,0.00,0.00,0.00,0.00,27.89,18.31,3.92,13.17,35.57,0.00,50.82,5.67,6.32,0.00,0.00,0.43
1,76.83,92.41,72.00,42.47,16.61,0.00,0.00,2.69,24.30,0.00,0.00,5.43,19.96,0.00,30.14,3.28,0.00,0.00,0.00,0.00,27.75,18.31,3.92,13.18,35.83,0.00,50.82,5.82,6.51,0.00,0.00,0.45
1,76.79,91.14,72.00,42.43,16.14,0.00,0.00,2.61,23.93,0.00,0.00,5.30,20.35,0.00,31.51,3.35,0.00,0.00,0.00,0.00,27.49,18.31,3.92,13.17,35.68,0.00,49.18,5.67,6.12,0.00,0.00,0.42
1,74.66,87.34,66.00,40.96,17.10,0.00,0.00,2.87,23.83,0.00,0.00,5.33,19.95,0.00,28.77,3.27,0.00,0.00,0.00,0.00,28.53,22.54,3.92,13.56,34.86,0.00,40.98,5.80,6.03,0.00,0.00,0.40
1,73.78,84.81,62.00,40.72,17.45,0.00,0.00,2.97,23.81,0.00,0.00,5.39,19.96,0.00,30.14,3.13,0.00,0.00,0.00,0.00,28.32,21.13,3.92,13.29,34.14,0.00,39.34,5.50,6.21,0.00,0.00,0.41
1,72.83,84.81,60.00,39.59,17.22,0.00,0.00,2.93,24.11,0.00,0.00,5.55,19.55,0.00,27.40,3.00,0.00,0.00,0.00,0.00,28.65,22.54,3.92,13.62,34.98,0.00,40.98,5.74,6.49,0.00,0.00,0.45
1,71.31,83.54,54.00,38.33,17.26,0.00,0.00,2.92,23.89,0.00,0.00,5.31,19.26,0.00,27.40,2.84,0.00,0.00,0.00,0.00,28.82,21.13,3.92,13.66,36.12,0.00,44.26,6.03,6.51,0.00,0.00,0.45
1,70.85,82.28,54.00,37.76,17.10,0.00,0.00,2.94,23.80,0.00,0.00,5.22,18.50,0.00,24.66,2.63,0.00,0.00,0.00,0.00,29.11,21.13,3.92,13.52,36.59,0.00,47.54,6.05,6.66,0.00,0.00,0.47
1,71.17,81.01,54.00,37.69,17.21,0.00,0.00,2.82,24.03,0.00,0.00,5.13,19.23,0.00,26.03,3.01,0.00,0.00,0.00,0.00,30.02,21.13,3.92,13.82,37.30,0.00,49.18,6.29,6.53,0.00,0.00,0.47
1,68.66,78.48,50.00,36.62,16.94,0.00,0.00,2.82,24.69,0.00,0.00,5.38,18.79,0.00,23.29,2.94,0.00,0.00,0.00,0.00,30.34,22.54,3.92,14.24,37.66,0.00,49.18,6.32,6.15,0.00,0.00,0.40
1,69.59,75.95,52.00,38.12,16.94,0.00,0.00,2.79,24.57,0.00,0.00,5.17,19.04,0.00,23.29,3.10,0.00,0.00,0.00,0.00,31.15,22.54,3.92,14.67,38.15,0.00,50.82,6.62,6.13,0.00,0.00,0.41
1,67.78,73.42,48.00,36.75,16.92,0.00,0.00,2.72,25.03,0.00,0.00,5.12,18.99,0.00,23.29,3.01,0.00,0.00,0.00,0.00,31.76,22.54,3.92,15.14,39.88,0.00,55.74,6.99,6.05,0.00,0.00,0.40
1,67.57,69.62,50.00,37.69,16.77,0.00,0.00,2.61,26.23,0.00,0.00,5.63,19.50,0.00,26.03,3.14,0.00,0.00,0.00,0.00,32.62,26.76,3.92,15.83,40.99,3.12,59.02,7.37,6.29,0.00,0.00,0.41
1,68.10,70.89,48.00,38.61,16.92,0.00,0.00,2.61,26.42,0.00,0.00,5.63,19.43,0.00,26.03,3.15,0.00,0.00,0.00,0.00,32.85,26.76,3.92,16.23,39.40,3.12,55.74,7.08,6.00,0.00,0.00,0.37
1,67.08,67.09,46.00,37.67,16.59,0.00,0.00,2.48,26.77,0.00,0.00,5.60,19.81,0.00,28.77,3.25,0.00,0.00,0.00,0.00,32.40,26.76,3.92,16.23,40.25,6.25,55.74,7.40,6.37,0.00,0.00,0.41
1,66.14,64.56,44.00,37.36,16.63,0.00,0.00,2.50,27.08,0.00,0.00,5.66,20.04,0.00,30.14,3.22,0.00,0.00,0.00,0.00,32.95,29.58,3.92,16.65,40.19,6.25,55.74,7.66,6.27,0.00,0.00,0.43
1,66.04,63.29,44.00,37.65,16.58,0.00,0.00,2.48,26.86,0.00,0.00,5.23,20.08,0.00,32.88,3.24,0.00,0.00,0.00,0.00,30.26,25.35,1.96,13.23,41.09,6.25,59.02,7.78,6.19,0.00,0.00,0.43
1,65.79,64.56,46.00,37.20,16.85,0.00,0.00,2.48,26.91,0.00,0.00,5.22,19.70,0.00,32.88,3.16,0.00,0.00,0.00,0.00,29.20,22.54,1.96,12.11,40.54,6.25,59.02,7.64,5.93,0.00,0.00,0.41
1,65.26,63.29,46.00,36.27,16.91,0.00,0.00,2.52,26.30,0.00,0.00,5.07,19.72,0.00,31.51,3.27,0.00,0.00,0.00,0.00,29.59,22.54,1.96,12.17,41.47,6.25,59.02,7.84,5.57,0.00,0.00,0.36
1,65.45,62.03,46.00,36.23,17.02,0.00,0.00,2.58,26.16,0.00,0.00,5.04,20.44,0.00,35.62,3.45,0.00,0.00,0.00,0.00,30.39,25.35,1.96,13.04,42.49,6.25,60.66,8.46,5.65,0.00,0.00,0.37
1,63.82,63.29,46.00,34.47,17.44,0.00,0.00,2.63,24.92,0.00,0.00,4.69,21.73,0.00,36.99,4.14,0.00,0.00,0.00,0.00,27.90,21.13,0.00,10.90,41.29,6.25,57.38,7.88,6.07,0.00,0.00,0.41
1,63.75,64.56,44.00,34.39,16.93,0.00,0.00,2.53,24.22,0.00,0.00,4.20,21.12,0.00,35.62,4.04,0.00,0.00,0.00,0.00,27.45,21.13,0.00,10.41,42.94,12.50,57.38,8.88,6.09,0.00,0.00,0.41
1,60.53,60.76,36.00,31.83,16.66,0.00,0.00,2.48,24.85,0.00,0.00,4.37,20.38,0.00,32.88,3.87,0.00,0.00,0.00,0.00,26.59,18.31,0.00,9.88,42.47,12.50,57.38,8.61,5.94,0.00,0.00,0.39
1,63.05,64.56,38.00,33.61,16.85,0.00,0.00,2.52,24.58,0.00,0.00,4.43,20.55,0.00,31.51,3.91,0.00,0.00,0.00,0.00,27.18,18.31,0.00,10.18,43.28,12.50,57.38,8.92,6.24,0.00,0.00,0.42
1,64.78,67.09,44.00,34.65,16.33,0.00,0.00,2.28,25.10,0.00,0.00,4.56,20.33,0.00,32.88,3.91,0.00,0.00,0.00,0.00,26.73,16.90,0.00,10.04,44.14,12.50,59.02,9.26,6.22,0.00,0.00,0.42
1,67.25,70.89,52.00,36.51,16.28,0.00,0.00,2.25,25.71,0.00,0.00,4.96,20.16,0.00,31.51,3.93,0.00,0.00,0.00,0.00,25.73,14.08,0.00,9.58,44.81,12.50,59.02,9.61,6.24,0.00,0.00,0.43
1,66.88,69.62,52.00,36.39,16.11,0.00,0.00,2.24,26.61,0.00,0.00,5.40,20.41,0.00,32.88,4.02,0.00,0.00,0.00,0.00,25.96,15.49,0.00,9.66,45.09,12.50,62.30,9.74,6.15,0.00,0.00,0.42
1,68.38,70.89,56.00,38.12,15.82,0.00,0.00,2.20,26.72,0.00,0.00,5.72,20.98,0.00,34.25,4.22,0.00,0.00,0.00,0.00,25.59,15.49,0.00,9.35,43.31,12.50,55.74,9.30,6.45,0.00,0.00,0.44
1,68.78,70.89,56.00,38.55,15.25,0.00,0.00,1.99,27.89,0.00,0.00,6.21,20.93,0.00,34.25,4.23,0.00,0.00,0.00,0.00,25.15,15.49,0.00,9.35,44.13,12.50,59.02,9.51,6.31,0.00,0.00,0.42
1,69.03,70.89,56.00,38.83,15.14,0.00,0.00,2.04,28.31,0.00,0.00,6.38,20.54,0.00,35.62,3.97,0.00,0.00,0.00,0.00,24.28,15.49,0.00,9.08,43.48,12.50,57.38,9.23,6.69,0.00,0.00,0.47
1,69.51,73.42,54.00,38.85,15.20,0.00,0.00,2.02,27.95,0.00,0.00,6.21,20.65,0.00,35.62,3.93,0.00,0.00,0.00,0.00,23.80,14.08,0.00,8.59,44.31,12.50,62.30,9.41,6.66,0.00,0.00,0.47
1,70.14,74.68,52.00,40.69,14.78,0.00,0.00,1.97,28.17,0.00,0.00,6.20,20.34,0.00,34.25,3.78,0.00,0.00,0.00,0.00,23.51,14.08,0.00,8.48,43.55,12.50,57.38,9.23,6.78,0.00,0.00,0.49
1,69.49,73.42,50.00,40.18,14.36,0.00,0.00,1.86,28.37,0.00,0.00,6.34,20.36,0.00,34.25,3.78,0.00,0.00,0.00,0.00,22.71,14.08,0.00,7.86,42.73,12.50,55.74,9.15,6.74,0.00,0.00,0.49
1,68.19,72.15,46.00,38.71,14.35,0.00,0.00,1.88,27.19,0.00,0.00,5.88,19.86,0.00,31.51,3.58,0.00,0.00,0.00,0.00,22.02,11.27,0.00,7.37,41.38,12.50,52.46,8.80,6.74,0.00,0.00,0.49
1,68.86,74.68,50.00,38.84,13.97,0.00,0.00,1.84,27.45,0.00,0.00,6.13,20.26,0.00,32.88,3.67,0.00,0.00,0.00,0.00,21.89,11.27,0.00,7.34,42.34,15.63,55.74,9.05,6.82,0.00,0.00,0.50
1,70.25,79.75,54.00,38.84,13.93,0.00,0.00,1.85,27.19,0.00,0.00,6.16,20.30,0.00,32.88,3.71,0.00,0.00,0.00,0.00,22.49,12.68,0.00,7.63,43.54,15.63,57.38,9.31,6.81,0.00,0.00,0.50
1,71.45,82.28,58.00,39.87,14.09,0.00,0.00,1.87,25.75,0.00,0.00,5.72,20.86,0.00,35.62,3.78,0.00,0.00,0.00,0.00,21.09,9.86,0.00,6.99,42.48,12.50,57.38,8.77,6.59,0.00,0.00,0.45
1,71.96,84.81,62.00,39.28,14.27,0.00,0.00,1.88,25.27,0.00,0.00,5.72,20.26,0.00,31.51,3.76,0.00,0.00,0.00,0.00,21.48,9.86,0.00,7.13,45.44,18.75,59.02,10.27,6.67,0.00,0.00,0.46
1,71.99,83.54,60.00,39.17,14.14,0.00,0.00,1.87,25.84,0.00,0.00,6.19,20.68,0.00,31.51,3.84,0.00,0.00,0.00,0.00,21.74,9.86,0.00,7.18,44.88,18.75,57.38,10.35,6.76,0.00,0.00,0.47
1,71.67,84.81,58.00,38.56,13.67,0.00,0.00,1.77,25.88,0.00,0.00,6.20,20.79,0.00,31.51,3.74,0.00,0.00,0.00,0.00,21.54,9.86,0.00,7.14,43.64,18.75,55.74,10.08,6.96,0.00,0.00,0.49
1,73.52,86.08,62.00,39.78,13.57,0.00,0.00,1.74,26.42,0.00,0.00,6.32,20.66,0.00,28.77,3.71,0.00,0.00,0.00,0.00,20.50,7.04,0.00,6.37,42.98,21.87,55.74,9.78,7.09,0.00,0.00,0.51
1,73.93,84.81,60.00,40.78,13.62,0.00,0.00,1.79,27.23,0.00,0.00,6.79,19.43,0.00,26.03,3.09,0.00,0.00,0.00,0.00,20.92,7.04,0.00,6.48,43.65,21.87,60.66,9.85,6.95,0.00,0.00,0.51
1,73.82,83.54,60.00,40.58,13.45,0.00,0.00,1.73,27.51,0.00,0.00,7.09,19.22,0.00,26.03,2.97,0.00,0.00,0.00,0.00,20.69,5.63,0.00,6.28,41.52,15.63,59.02,8.80,6.97,0.00,0.00,0.51
1,74.29,83.54,60.00,40.46,13.47,0.00,0.00,1.71,26.61,0.00,0.00,6.99,19.90,0.00,31.51,3.04,0.00,0.00,0.00,0.00,20.92,5.63,0.00,6.32,41.96,15.63,59.02,9.19,6.90,0.00,0.00,0.51
1,75.20,82.28,64.00,41.24,13.27,0.00,0.00,1.64,26.25,0.00,0.00,6.89,19.96,0.00,32.88,3.13,0.00,0.00,0.00,0.00,20.31,5.63,0.00,6.19,40.84,15.63,57.38,9.01,6.84,0.00,0.00,0.51
1,73.35,79.75,58.00,39.28,13.46,0.00,0.00,1.71,26.53,0.00,0.00,6.89,20.46,0.00,32.88,3.26,0.00,0.00,0.00,0.00,20.15,5.63,0.00,5.83,41.92,18.75,60.66,9.33,7.01,0.00,0.00,0.51
1,70.30,75.95,52.00,36.53,12.97,0.00,0.00,1.70,25.83,0.00,0.00,6.70,20.27,0.00,31.51,3.21,0.00,0.00,0.00,0.00,20.51,5.63,0.00,6.06,42.24,18.75,63.93,9.14,6.97,0.00,0.00,0.51
1,71.72,77.22,52.00,37.93,13.95,0.00,0.00,1.89,25.52,0.00,0.00,6.14,20.66,0.00,32.88,3.24,0.00,0.00,0.00,0.00,20.00,4.23,0.00,5.86,42.74,18.75,65.57,9.38,6.62,0.00,0.00,0.48
1,71.12,75.95,48.00,37.45,13.89,0.00,0.00,1.90,25.33,0.00,0.00,6.08,20.69,0.00,32.88,3.26,0.00,0.00,0.00,0.00,19.54,2.82,0.00,5.63,44.87,25.00,68.85,10.28,6.59,0.00,0.00,0.48
1,71.78,75.95,50.00,36.96,13.98,0.00,0.00,1.91,25.39,0.00,0.00,6.39,21.87,0.00,36.99,3.60,0.00,0.00,0.00,0.00,19.29,2.82,0.00,5.49,46.66,31.25,67.21,11.66,6.71,0.00,0.00,0.49
1,73.20,78.48,52.00,38.27,13.92,0.00,0.00,1.86,24.95,0.00,0.00,6.20,21.35,0.00,32.88,3.54,0.00,0.00,0.00,0.00,19.53,2.82,0.00,5.54,47.24,31.25,68.85,11.79,6.68,0.00,0.00,0.49
1,72.61,77.22,52.00,38.11,14.00,0.00,0.00,1.86,25.83,0.00,0.00,6.87,21.69,0.00,34.25,3.84,0.00,0.00,0.00,0.00,19.58,2.82,0.00,5.59,46.67,31.25,67.21,11.47,6.63,0.00,0.00,0.46
1,71.31,77.22,54.00,36.87,13.82,0.00,0.00,1.81,25.96,0.00,0.00,7.27,22.07,0.00,35.62,4.07,0.00,0.00,0.00,0.00,19.41,2.82,0.00,5.55,46.62,31.25,68.85,11.70,6.71,0.00,0.00,0.46
1,70.67,79.75,56.00,34.76,13.49,0.00,0.00,1.77,26.50,0.00,0.00,7.85,22.04,0.00,35.62,4.23,0.00,0.00,0.00,0.00,19.53,2.82,0.00,5.58,46.86,31.25,68.85,11.75,6.76,0.00,0.00,0.46
1,70.23,79.75,58.00,34.40,13.41,0.00,0.00,1.74,26.32,0.00,0.00,7.95,22.25,0.00,35.62,4.23,0.00,0.00,0.00,0.00,19.69,2.82,0.00,5.50,48.01,31.25,72.13,11.89,6.84,0.00,0.00,0.48
1,68.52,75.95,54.00,33.38,13.49,0.00,0.00,1.71,26.59,0.00,0.00,8.08,22.05,0.00,34.25,4.34,0.00,0.00,0.00,0.00,18.74,1.41,0.00,4.90,46.43,25.00,67.21,11.35,6.71,0.00,0.00,0.46
1,68.28,73.42,54.00,33.29,13.69,0.00,0.00,1.74,26.95,0.00,0.00,8.30,21.76,0.00,32.88,4.21,0.00,0.00,0.00,0.00,19.01,1.41,0.00,5.04,45.63,25.00,65.57,11.07,6.69,0.00,0.00,0.47
1,67.13,70.89,52.00,33.45,13.75,0.00,0.00,1.72,27.68,0.00,0.00,8.81,21.50,0.00,31.51,4.33,0.00,0.00,0.00,0.00,18.70,0.00,0.00,4.57,46.18,25.00,67.21,11.32,6.37,0.00,0.00,0.43
1,66.76,68.35,48.00,33.20,13.38,0.00,0.00,1.77,27.64,0.00,0.00,8.99,21.27,0.00,32.88,4.15,0.00,0.00,0.00,0.00,18.79,0.00,0.00,4.61,44.56,25.00,63.93,11.13,6.66,0.00,0.00,0.47
1,67.73,68.35,50.00,34.90,13.47,0.00,0.00,1.79,27.30,0.00,0.00,8.75,21.35,0.00,34.25,4.30,0.00,0.00,0.00,0.00,18.22,0.00,0.00,4.46,43.85,21.87,62.30,10.28,6.53,0.00,0.00,0.44
1,66.78,67.09,50.00,34.55,13.43,0.00,0.00,1.78,27.53,0.00,0.00,8.81,21.48,0.00,36.99,4.26,0.00,0.00,0.00,0.00,18.61,0.00,0.00,4.76,45.75,25.00,67.21,10.83,6.51,0.00,0.00,0.43
1,66.89,67.09,50.00,34.89,13.93,0.00,0.00,1.96,27.52,0.00,0.00,8.97,21.19,0.00,36.99,4.21,0.00,0.00,0.00,0.00,18.91,0.00,0.00,4.87,45.04,21.87,65.57,10.43,6.29,0.00,0.00,0.41
1,63.57,64.56,46.00,32.40,14.18,0.00,0.00,2.05,27.97,0.00,0.00,8.90,21.61,0.00,39.73,4.41,0.00,0.00,0.00,0.00,19.09,0.00,0.00,4.91,44.81,21.87,63.93,10.57,6.14,0.00,0.00,0.40
1,65.88,65.82,50.00,33.68,14.12,0.00,0.00,2.00,28.62,0.00,0.00,9.22,21.27,0.00,38.36,4.36,0.00,0.00,0.00,0.00,18.83,0.00,0.00,4.78,45.51,21.87,65.57,10.59,6.31,0.00,0.00,0.41
1,65.60,67.09,50.00,33.65,13.96,0.00,0.00,1.98,29.88,0.00,0.00,9.70,21.01,0.00,34.25,4.37,0.00,0.00,0.00,0.00,18.64,0.00,0.00,4.71,44.66,21.87,65.57,10.20,6.27,0.00,0.00,0.41
1,64.15,65.82,46.00,32.34,14.41,0.00,0.00,2.11,29.93,0.00,0.00,9.67,20.76,0.00,32.88,4.24,0.00,0.00,0.00,0.00,19.12,0.00,0.00,4.87,45.31,21.87,65.57,10.31,6.35,0.00,0.00,0.42
1,63.78,65.82,46.00,32.87,14.69,0.00,0.00,2.16,30.27,0.00,0.00,9.69,20.74,0.00,35.62,4.18,0.00,0.00,0.00,0.00,19.03,0.00,0.00,4.84,45.88,21.87,67.21,10.27,6.36,0.00,0.00,0.43
1,66.39,70.89,52.00,34.84,14.65,0.00,0.00,2.08,31.82,0.00,0.00,10.22,20.91,0.00,35.62,4.20,0.00,0.00,0.00,0.00,18.49,0.00,0.00,4.51,45.35,21.87,68.85,10.12,6.49,0.00,0.00,0.44
1,64.43,67.09,50.00,33.28,13.99,0.00,0.00,1.94,31.91,0.00,0.00,10.27,20.53,0.00,34.25,4.20,0.00,0.00,0.00,0.00,17.67,0.00,0.00,4.24,43.76,21.87,67.21,9.55,6.60,0.00,0.00,0.45
1,64.97,64.56,52.00,34.46,13.60,0.00,0.00,1.85,31.86,0.00,0.00,10.41,20.15,0.00,35.62,4.24,0.00,0.00,0.00,0.00,17.66,0.00,0.00,4.26,42.82,15.63,67.21,9.07,6.59,0.00,0.00,0.45
1,64.38,64.56,52.00,33.92,13.55,0.00,0.00,1.86,31.52,0.00,0.00,10.48,19.70,0.00,34.25,4.14,0.00,0.00,0.00,0.00,17.85,0.00,0.00,4.35,40.58,9.38,65.57,7.65,6.48,0.00,0.00,0.45
1,63.43,64.56,50.00,32.73,13.69,0.00,0.00,1.91,31.54,0.00,0.00,10.43,20.21,0.00,35.62,4.24,0.00,0.00,0.00,0.00,17.80,0.00,0.00,4.31,40.01,9.38,65.57,7.41,6.69,0.00,0.00,0.46
1,65.35,68.35,58.00,34.23,13.16,0.00,0.00,1.79,30.41,0.00,0.00,10.04,19.79,0.00,35.62,4.02,0.00,0.00,0.00,0.00,17.85,0.00,0.00,4.38,40.06,9.38,65.57,7.45,6.72,0.00,0.00,0.47
1,63.71,65.82,52.00,34.30,13.36,0.00,0.00,1.85,30.58,0.00,0.00,9.63,19.66,0.00,35.62,3.80,0.00,0.00,0.00,0.00,17.77,0.00,0.00,4.35,38.78,9.38,62.30,7.06,6.29,0.00,0.00,0.45
1,61.70,62.03,50.00,32.47,13.93,0.00,0.00,1.94,30.06,0.00,0.00,9.06,19.37,0.00,36.99,3.58,0.00,0.00,0.00,0.00,18.20,0.00,0.00,4.51,39.85,9.38,63.93,7.14,6.56,0.00,0.00,0.47
1,60.82,59.49,48.00,31.39,14.02,0.00,0.00,1.88,31.01,0.00,0.00,9.18,20.02,0.00,39.73,3.76,0.00,0.00,0.00,0.00,18.70,0.00,0.00,4.65,42.57,15.63,65.57,8.47,6.59,0.00,0.00,0.47
1,61.02,60.76,46.00,31.22,14.23,0.00,0.00,1.92,30.87,0.00,0.00,8.89,19.48,0.00,39.73,3.53,0.00,0.00,0.00,0.00,18.43,0.00,0.00,4.56,43.56,18.75,68.85,9.59,6.78,0.00,0.00,0.48
1,62.93,63.29,48.00,33.27,13.54,0.00,0.00,1.83,30.21,0.00,0.00,8.67,19.80,0.00,41.10,3.58,0.00,0.00,0.00,0.00,18.22,0.00,0.00,4.47,44.27,18.75,68.85,9.69,7.19,0.00,0.00,0.54
1,61.72,60.76,44.00,31.78,14.44,0.00,0.00,2.04,29.58,0.00,0.00,8.19,19.31,0.00,39.73,3.45,0.00,0.00,0.00,0.00,18.13,0.00,0.00,4.40,43.49,18.75,67.21,9.40,7.22,0.00,0.00,0.54
1,64.68,67.09,50.00,32.90,14.22,0.00,0.00,2.02,30.42,0.00,0.00,8.40,19.08,0.00,38.36,3.40,0.00,0.00,0.00,0.00,17.93,0.00,0.00,4.29,42.53,15.63,67.21,8.68,6.94,0.00,0.00,0.50
1,64.21,67.09,48.00,33.17,14.20,0.00,0.00,2.01,30.25,0.00,0.00,8.07,19.57,0.00,42.47,3.38,0.00,0.00,0.00,0.00,18.03,0.00,0.00,4.17,43.14,15.63,68.85,8.74,6.90,0.00,0.00,0.50
1,67.11,69.62,52.00,36.06,14.31,0.00,0.00,2.07,30.47,0.00,0.00,8.10,19.34,0.00,38.36,3.34,0.00,0.00,0.00,0.00,17.35,0.00,0.00,3.89,41.07,12.50,65.57,8.08,6.82,0.00,0.00,0.48
1,67.69,72.15,52.00,37.08,13.73,0.00,0.00,1.86,30.79,0.00,0.00,7.87,19.49,0.00,39.73,3.43,0.00,0.00,0.00,0.00,16.61,0.00,0.00,3.47,41.38,12.50,67.21,8.21,7.03,0.00,0.00,0.51
1,67.57,72.15,50.00,36.68,14.27,0.00,0.00,1.91,30.75,0.00,0.00,7.89,18.68,0.00,38.36,3.15,0.00,0.00,0.00,0.00,16.70,0.00,0.00,3.51,41.61,12.50,70.49,8.11,7.15,0.00,0.00,0.52
1,66.69,70.89,48.00,36.35,14.28,0.00,0.00,1.91,30.34,0.00,0.00,7.51,18.83,0.00,38.36,3.20,0.00,0.00,0.00,0.00,15.95,0.00,0.00,3.26,42.36,12.50,72.13,8.33,7.08,0.00,0.00,0.55
1,65.80,68.35,46.00,35.85,14.76,0.00,0.00,2.06,28.98,0.00,0.00,7.04,18.46,0.00,36.99,3.14,0.00,0.00,0.00,0.00,16.20,0.00,0.00,3.24,42.24,12.50,72.13,8.27,7.20,0.00,0.00,0.57
1,66.47,69.62,46.00,35.99,14.41,0.00,0.00,2.03,29.61,0.00,0.00,7.04,18.66,0.00,36.99,3.09,0.00,0.00,0.00,0.00,16.00,0.00,0.00,3.26,43.57,15.63,75.41,8.72,7.13,0.00,0.00,0.57
1,64.84,69.62,42.00,34.34,14.41,0.00,0.00,2.01,29.26,0.00,0.00,6.93,18.07,0.00,34.25,2.99,0.00,0.00,0.00,0.00,16.44,0.00,0.00,3.38,44.02,15.63,73.77,9.07,7.05,0.00,0.00,0.56
1,65.19,68.35,42.00,34.68,14.47,0.00,0.00,2.02,27.88,0.00,0.00,6.26,18.29,0.00,35.62,3.01,0.00,0.00,0.00,0.00,16.41,0.00,0.00,3.44,43.19,15.63,68.85,8.94,6.83,0.00,0.00,0.52
1,64.62,68.35,44.00,34.43,14.27,0.00,0.00,1.96,27.35,0.00,0.00,6.19,19.00,0.00,38.36,3.20,0.00,0.00,0.00,0.00,16.64,0.00,0.00,3.49,40.29,12.50,62.30,8.19,7.02,0.00,0.00,0.56
1,62.77,67.09,40.00,32.38,14.42,0.00,0.00,2.01,26.98,0.00,0.00,6.09,18.33,0.00,32.88,3.06,0.00,0.00,0.00,0.00,16.81,0.00,0.00,3.63,39.07,12.50,59.02,7.80,6.88,0.00,0.00,0.56
1,62.02,64.56,38.00,31.73,14.63,0.00,0.00,2.07,25.60,0.00,0.00,4.98,17.50,0.00,30.14,2.64,0.00,0.00,0.00,0.00,16.79,0.00,0.00,3.63,39.39,12.50,60.66,7.85,6.63,0.00,0.00,0.51
0,60.43,59.49,38.00,30.53,14.63,0.00,0.00,2.07,27.09,0.00,0.00,5.47,17.55,0.00,30.14,2.62,0.00,0.00,0.00,0.00,16.31,0.00,0.00,3.47,38.64,12.50,55.74,7.71,6.45,0.00,0.00,0.50
0,58.64,55.70,32.00,29.54,15.20,0.00,0.00,2.33,27.21,0.00,0.00,5.58,17.43,0.00,31.51,2.61,0.00,0.00,0.00,0.00,15.84,0.00,0.00,3.24,37.16,12.50,52.46,7.38,6.12,0.00,0.00,0.46
0,57.19,53.16,30.00,27.61,14.90,0.00,0.00,2.27,26.36,0.00,0.00,5.23,17.59,0.00,32.88,2.67,0.00,0.00,0.00,0.00,15.66,0.00,0.00,3.19,36.74,12.50,50.82,7.39,6.17,0.00,0.00,0.46
0,58.17,53.16,30.00,27.76,15.23,0.00,0.00,2.34,26.44,0.00,0.00,5.34,17.57,0.00,32.88,2.69,0.00,0.00,0.00,0.00,16.14,0.00,0.00,3.44,35.80,12.50,47.54,7.19,6.03,0.00,0.00,0.45
0,59.51,55.70,30.00,29.34,14.97,0.00,0.00,2.28,25.71,0.00,0.00,5.03,17.23,0.00,30.14,2.53,0.00,0.00,0.00,0.00,15.49,0.00,0.00,3.22,33.22,12.50,40.98,6.58,5.94,0.00,0.00,0.45
0,60.82,58.23,32.00,29.85,15.02,0.00,0.00,2.29,25.30,0.00,0.00,5.04,17.17,0.00,28.77,2.47,0.00,0.00,0.00,0.00,14.94,0.00,0.00,3.01,28.88,3.12,36.07,4.24,5.85,0.00,0.00,0.43
0,59.70,56.96,34.00,28.71,15.20,0.00,0.00,2.35,25.83,0.00,0.00,5.20,17.04,0.00,27.40,2.42,0.00,0.00,0.00,0.00,15.30,0.00,0.00,3.29,29.09,3.12,36.07,4.31,5.24,0.00,0.00,0.35
0,60.35,58.23,36.00,29.87,14.61,0.00,0.00,2.18,25.73,0.00,0.00,5.11,16.72,0.00,27.40,2.36,0.00,0.00,0.00,0.00,15.03,0.00,0.00,3.20,27.80,3.12,32.79,4.11,5.27,0.00,0.00,0.34
0,58.05,54.43,32.00,28.43,14.53,0.00,0.00,2.09,25.39,0.00,0.00,4.84,16.84,0.00,27.40,2.36,0.00,0.00,0.00,0.00,15.03,0.00,0.00,3.23,26.78,3.12,31.15,3.93,5.26,0.00,0.00,0.35
0,58.00,51.90,34.00,29.68,14.92,0.00,0.00,2.15,25.86,0.00,0.00,5.13,16.25,0.00,21.92,2.31,0.00,0.00,0.00,0.00,17.34,4.23,1.96,4.66,25.29,3.12,27.87,3.61,5.18,0.00,0.00,0.35
0,58.46,50.63,34.00,31.54,14.72,0.00,0.00,2.09,26.05,0.00,0.00,5.20,16.44,0.00,23.29,2.27,0.00,0.00,0.00,0.00,19.03,8.45,1.96,6.20,24.66,3.12,26.23,3.51,5.22,0.00,0.00,0.36
0,57.54,49.37,32.00,30.02,15.18,0.00,0.00,2.17,25.59,0.00,0.00,5.19,16.22,0.00,23.29,2.21,0.00,0.00,0.00,0.00,19.53,8.45,1.96,6.32,24.23,3.12,22.95,3.55,4.93,0.00,0.00,0.32
0,58.92,53.16,36.00,30.44,15.44,0.00,0.00,2.18,25.78,0.00,0.00,5.21,16.07,0.00,21.92,2.22,0.00,0.00,0.00,0.00,20.07,8.45,1.96,6.55,22.45,3.12,16.39,3.10,4.84,0.00,0.00,0.32
0,60.25,54.43,38.00,31.20,14.88,0.00,0.00,2.10,25.12,0.00,0.00,4.85,15.85,0.00,21.92,2.15,0.00,0.00,0.00,0.00,20.58,8.45,1.96,6.74,20.57,3.12,13.11,2.73,4.37,0.00,0.00,0.23
0,60.41,55.70,40.00,31.12,14.31,0.00,0.00,1.96,25.55,0.00,0.00,5.02,16.16,0.00,21.92,2.20,0.00,0.00,0.00,0.00,20.58,8.45,1.96,6.83,20.00,3.12,11.48,2.59,4.15,0.00,0.00,0.21
0,60.74,54.43,42.00,31.58,14.18,0.00,0.00,1.94,25.61,0.00,0.00,5.06,16.30,0.00,23.29,2.27,0.00,0.00,0.00,0.00,20.82,8.45,1.96,6.88,18.39,0.00,6.56,2.08,4.10,0.00,0.00,0.20
0,60.95,53.16,44.00,32.11,14.01,0.00,0.00,1.85,25.10,0.00,0.00,5.06,16.05,0.00,21.92,2.22,0.00,0.00,0.00,0.00,20.45,8.45,1.96,6.78,16.45,0.00,3.28,1.71,4.16,0.00,0.00,0.20
0,60.28,54.43,40.00,31.58,13.80,0.00,0.00,1.82,24.98,0.00,0.00,4.92,16.21,0.00,23.29,2.19,0.00,0.00,0.00,0.00,20.30,8.45,1.96,6.73,15.71,0.00,1.64,1.28,4.06,0.00,0.00,0.20
0,58.24,53.16,36.00,29.97,13.75,0.00,0.00,1.82,24.68,0.00,0.00,4.84,15.11,0.00,20.55,1.94,0.00,0.00,0.00,0.00,20.58,8.45,1.96,6.84,15.61,0.00,1.64,1.30,3.64,0.00,0.00,0.15
0,60.70,56.96,42.00,31.37,14.19,0.00,0.00,1.98,24.91,0.00,0.00,4.84,15.12,0.00,20.55,1.91,0.00,0.00,0.00,0.00,20.35,8.45,1.96,6.67,16.73,0.00,1.64,1.63,3.60,0.00,0.00,0.14
0,61.32,60.76,42.00,31.68,13.98,0.00,0.00,1.95,24.95,0.00,0.00,4.81,15.15,0.00,20.55,1.90,0.00,0.00,0.00,0.00,20.57,8.45,1.96,6.75,16.23,0.00,0.00,1.52,3.68,0.00,0.00,0.14
0,61.75,63.29,42.00,32.78,13.96,0.00,0.00,1.92,24.19,0.00,0.00,4.43,14.97,0.00,20.55,1.92,0.00,0.00,0.00,0.00,20.45,8.45,1.96,6.72,16.52,0.00,0.00,1.52,3.69,0.00,0.00,0.15
0,61.66,64.56,42.00,32.49,13.53,0.00,0.00,1.69,24.18,0.00,0.00,4.54,14.95,0.00,19.18,1.95,0.00,0.00,0.00,0.00,20.09,8.45,1.96,6.62,16.64,0.00,0.00,1.56,3.79,0.00,0.00,0.16
0,62.22,64.56,42.00,33.00,13.37,0.00,0.00,1.66,24.54,0.00,0.00,4.72,16.34,2.44,20.55,2.61,0.00,0.00,0.00,0.00,20.29,8.45,1.96,6.66,16.69,0.00,0.00,1.52,3.84,0.00,0.00,0.17
0,62.99,65.82,42.00,33.60,13.41,0.00,0.00,1.67,23.77,0.00,0.00,4.55,16.37,2.44,19.18,2.67,0.00,0.00,0.00,0.00,19.61,8.45,1.96,6.43,17.57,0.00,1.64,1.65,3.85,0.00,0.00,0.16
0,61.54,65.82,40.00,33.06,13.79,0.00,0.00,1.71,22.65,0.00,0.00,4.20,16.51,2.44,19.18,2.74,0.00,0.00,0.00,0.00,19.71,8.45,1.96,6.56,17.94,0.00,3.28,1.79,3.84,0.00,0.00,0.16
0,58.84,62.03,38.00,30.86,13.58,0.00,0.00,1.68,22.36,0.00,0.00,4.14,16.68,2.44,20.55,2.80,0.00,0.00,0.00,0.00,19.98,8.45,1.96,6.59,18.27,0.00,3.28,1.84,3.81,0.00,0.00,0.15
0,57.04,60.76,32.00,29.30,13.89,0.00,0.00,1.73,22.27,0.00,0.00,3.95,16.34,2.44,19.18,2.74,0.00,0.00,0.00,0.00,19.96,8.45,1.96,6.48,18.88,0.00,4.92,1.87,3.87,0.00,0.00,0.16
0,55.20,58.23,30.00,27.80,14.02,0.00,0.00,1.87,22.91,0.00,0.00,4.11,16.38,2.44,19.18,2.75,0.00,0.00,0.00,0.00,20.26,8.45,1.96,6.50,19.14,0.00,4.92,1.98,3.80,0.00,0.00,0.16
0,56.58,60.76,30.00,28.17,14.39,0.00,0.00,1.95,22.11,0.00,0.00,3.96,16.45,2.44,19.18,2.75,0.00,0.00,0.00,0.00,20.23,8.45,1.96,6.55,19.73,0.00,4.92,2.04,3.70,0.00,0.00,0.15
0,54.86,59.49,28.00,26.65,14.33,0.00,0.00,1.93,21.91,0.00,0.00,3.83,16.44,2.44,19.18,2.78,0.00,0.00,0.00,0.00,18.67,4.23,0.00,5.80,20.71,0.00,6.56,2.16,3.78,0.00,0.00,0.15
0,50.50,55.70,22.00,21.90,14.58,0.00,0.00,1.98,20.99,0.00,0.00,3.58,16.61,2.44,20.55,2.82,0.00,0.00,0.00,0.00,16.71,1.41,0.00,4.04,20.48,0.00,6.56,2.18,3.68,0.00,0.00,0.14
0,47.62,51.90,22.00,19.17,14.52,0.00,0.00,1.95,21.31,0.00,0.00,3.64,16.26,2.44,19.18,2.78,0.00,0.00,0.00,0.00,16.08,0.00,0.00,3.76,20.75,0.00,6.56,2.15,3.81,0.00,0.00,0.15
0,45.52,46.84,18.00,18.32,14.39,0.00,0.00,2.02,20.59,0.00,0.00,3.52,15.83,2.44,17.81,2.64,0.00,0.00,0.00,0.00,15.33,0.00,0.00,3.52,21.34,0.00,8.20,2.26,3.95,0.00,0.00,0.16
0,44.72,45.57,18.00,17.59,14.96,0.00,0.00,2.13,20.91,0.00,0.00,3.59,16.16,2.44,19.18,2.70,0.00,0.00,0.00,0.00,15.65,0.00,0.00,3.62,21.68,0.00,8.20,2.26,4.01,0.00,0.00,0.17
0,42.39,40.51,16.00,16.39,15.72,0.00,0.00,2.31,20.47,0.00,0.00,3.36,16.28,2.44,20.55,2.70,0.00,0.00,0.00,0.00,15.49,0.00,0.00,3.53,22.41,0.00,11.48,2.39,4.06,0.00,0.00,0.17
0,42.44,41.77,14.00,16.38,15.90,0.00,0.00,2.38,20.48,0.00,0.00,3.38,15.89,2.44,19.18,2.60,0.00,0.00,0.00,0.00,15.09,0.00,0.00,3.35,22.43,0.00,11.48,2.45,4.02,0.00,0.00,0.17
0,41.46,39.24,12.00,16.16,15.85,0.00,0.00,2.39,20.94,0.00,0.00,3.38,16.14,2.44,19.18,2.67,0.00,0.00,0.00,0.00,14.95,0.00,0.00,3.26,22.62,0.00,11.48,2.46,4.06,0.00,0.00,0.17
