0,14.28,2.53,0.00,2.00,17.68,0.00,0.00,2.37,23.27,0.00,0.00,5.86,16.42,0.00,16.44,3.38,0.00,0.00,0.00,0.00,14.62,2.82,1.96,3.59,18.49,0.00,3.28,1.70,2.98,0.00,0.00,0.10
0,14.73,2.53,0.00,2.15,17.88,0.00,0.00,2.40,23.01,0.00,0.00,5.72,16.25,0.00,15.07,3.39,0.00,0.00,0.00,0.00,15.04,2.82,1.96,3.83,18.44,0.00,3.28,1.68,2.92,0.00,0.00,0.10
0,14.52,2.53,0.00,2.23,18.07,0.00,0.00,2.53,23.15,0.00,0.00,5.75,16.71,0.00,16.44,3.50,0.00,0.00,0.00,0.00,15.11,2.82,1.96,3.84,18.79,0.00,3.28,1.68,2.85,0.00,0.00,0.10
0,14.20,2.53,0.00,2.16,18.34,0.00,0.00,2.57,23.09,0.00,0.00,5.77,16.78,0.00,16.44,3.51,0.00,0.00,0.00,0.00,15.06,2.82,1.96,3.83,18.60,0.00,3.28,1.64,2.79,0.00,0.00,0.09
0,14.24,2.53,0.00,2.16,18.43,0.00,0.00,2.70,22.94,0.00,0.00,5.82,16.83,0.00,17.81,3.56,0.00,0.00,0.00,0.00,15.27,2.82,1.96,4.03,18.72,0.00,4.92,1.69,3.00,0.00,0.00,0.10
0,13.40,1.27,0.00,1.95,17.98,0.00,0.00,2.65,23.09,0.00,0.00,5.86,16.60,0.00,17.81,3.53,0.00,0.00,0.00,0.00,15.40,2.82,1.96,4.01,18.69,0.00,4.92,1.69,3.02,0.00,0.00,0.11
0,13.46,1.27,0.00,1.92,17.63,0.00,0.00,2.57,23.09,0.00,0.00,6.02,14.85,0.00,15.07,2.48,0.00,0.00,0.00,0.00,15.74,2.82,1.96,4.18,18.50,0.00,4.92,1.66,2.93,0.00,0.00,0.10
0,13.93,1.27,0.00,2.08,17.47,0.00,0.00,2.55,23.76,0.00,0.00,6.22,14.75,0.00,15.07,2.47,0.00,0.00,0.00,0.00,16.36,2.82,1.96,4.42,18.80,0.00,4.92,1.73,2.87,0.00,0.00,0.10
0,14.19,1.27,0.00,2.19,17.87,0.00,0.00,2.72,24.11,0.00,0.00,6.28,15.11,0.00,15.07,2.74,0.00,0.00,0.00,0.00,16.42,2.82,1.96,4.46,18.19,0.00,3.28,1.63,2.79,0.00,0.00,0.10
0,14.76,1.27,0.00,2.34,18.22,0.00,0.00,2.79,24.41,0.00,0.00,6.45,15.48,0.00,15.07,2.82,0.00,0.00,0.00,0.00,16.66,2.82,1.96,4.53,18.13,0.00,3.28,1.58,2.75,0.00,0.00,0.10
0,15.10,1.27,0.00,2.41,17.98,0.00,0.00,2.70,24.74,0.00,0.00,6.61,16.04,0.00,13.70,3.06,0.00,0.00,0.00,0.00,17.00,2.82,1.96,4.59,18.68,0.00,6.56,1.62,2.87,0.00,0.00,0.11
0,14.66,1.27,0.00,2.34,18.17,0.00,0.00,2.76,25.02,0.00,0.00,6.64,15.79,0.00,12.33,2.97,0.00,0.00,0.00,0.00,16.99,2.82,1.96,4.62,18.95,0.00,6.56,1.68,2.82,0.00,0.00,0.11
0,14.94,1.27,0.00,2.40,18.62,0.00,0.00,2.84,24.66,0.00,0.00,6.49,16.25,0.00,13.70,3.06,0.00,0.00,0.00,0.00,17.18,2.82,1.96,4.66,19.56,0.00,8.20,1.82,2.81,0.00,0.00,0.10
0,14.29,1.27,0.00,2.26,18.45,0.00,0.00,2.87,24.99,0.00,0.00,6.59,16.15,0.00,13.70,3.06,0.00,0.00,0.00,0.00,17.16,2.82,1.96,4.68,19.56,0.00,8.20,1.89,2.93,0.00,0.00,0.11
0,14.36,1.27,0.00,2.21,18.50,0.00,0.00,2.94,25.00,0.00,0.00,6.54,16.16,0.00,12.33,3.12,0.00,0.00,0.00,0.00,16.92,2.82,1.96,4.65,18.87,0.00,6.56,1.77,2.88,0.00,0.00,0.11
0,14.03,1.27,0.00,2.16,19.13,0.00,0.00,3.07,25.34,2.56,0.00,7.22,16.72,0.00,15.07,3.43,0.00,0.00,0.00,0.00,16.51,2.82,1.96,4.50,18.52,0.00,6.56,1.67,2.87,0.00,0.00,0.11
0,13.40,0.00,0.00,1.94,18.98,0.00,0.00,3.12,25.71,2.56,0.00,7.43,17.02,0.00,16.44,3.51,0.00,0.00,0.00,0.00,15.49,0.00,0.00,3.77,18.19,0.00,6.56,1.62,3.02,0.00,0.00,0.12
0,13.66,0.00,0.00,1.96,18.63,0.00,0.00,3.05,25.06,2.56,0.00,7.28,16.69,0.00,16.44,3.36,0.00,0.00,0.00,0.00,15.07,0.00,0.00,3.56,18.02,0.00,6.56,1.60,2.86,0.00,0.00,0.11
0,13.22,0.00,0.00,1.93,18.51,0.00,0.00,3.04,24.66,2.56,0.00,6.81,16.07,0.00,15.07,3.02,0.00,0.00,0.00,0.00,14.77,0.00,0.00,3.43,18.08,0.00,6.56,1.62,2.84,0.00,0.00,0.11
0,13.16,0.00,0.00,1.88,18.17,0.00,0.00,2.97,24.72,2.56,0.00,6.67,16.46,0.00,16.44,3.07,0.00,0.00,0.00,0.00,14.25,0.00,0.00,3.10,18.39,0.00,9.84,1.68,3.01,0.00,0.00,0.12
0,12.23,0.00,0.00,1.66,17.86,0.00,0.00,2.93,24.63,2.56,0.00,6.48,16.62,0.00,16.44,3.09,0.00,0.00,0.00,0.00,14.29,0.00,0.00,3.02,18.23,0.00,9.84,1.62,2.95,0.00,0.00,0.11
0,12.66,0.00,0.00,1.78,17.59,0.00,0.00,2.82,23.98,2.56,0.00,5.95,16.60,0.00,17.81,3.08,0.00,0.00,0.00,0.00,14.03,0.00,0.00,2.96,18.68,0.00,9.84,1.75,2.94,0.00,0.00,0.11
0,12.09,0.00,0.00,1.62,18.01,0.00,0.00,2.89,23.23,2.56,0.00,5.75,16.65,0.00,17.81,3.08,0.00,0.00,0.00,0.00,13.22,0.00,0.00,2.68,18.35,0.00,9.84,1.76,2.99,0.00,0.00,0.11
0,11.73,0.00,0.00,1.45,17.40,0.00,0.00,2.78,23.52,2.56,0.00,5.96,16.65,0.00,19.18,3.03,0.00,0.00,0.00,0.00,13.24,0.00,0.00,2.68,18.02,0.00,9.84,1.73,2.99,0.00,0.00,0.12
0,12.07,0.00,0.00,1.54,17.05,0.00,0.00,2.63,23.54,2.56,0.00,5.94,16.38,0.00,17.81,3.04,0.00,0.00,0.00,0.00,12.98,0.00,0.00,2.62,18.01,0.00,9.84,1.72,3.08,0.00,0.00,0.12
0,12.29,0.00,0.00,1.58,17.07,0.00,0.00,2.59,24.17,2.56,0.00,6.29,16.69,0.00,19.18,3.21,0.00,0.00,0.00,0.00,12.49,0.00,0.00,2.44,17.65,0.00,8.20,1.64,2.93,0.00,0.00,0.12
0,12.51,0.00,0.00,1.60,17.79,0.00,0.00,2.67,24.05,2.56,0.00,6.23,16.88,0.00,19.18,3.25,0.00,0.00,0.00,0.00,12.09,0.00,0.00,2.31,17.54,0.00,8.20,1.63,2.87,0.00,0.00,0.11
0,12.75,0.00,0.00,1.65,18.12,0.00,0.00,2.73,23.87,2.56,0.00,6.10,16.85,0.00,19.18,3.26,0.00,0.00,0.00,0.00,11.81,0.00,0.00,2.17,17.82,0.00,8.20,1.70,2.99,0.00,0.00,0.12
0,12.25,0.00,0.00,1.51,18.51,0.00,0.00,2.78,24.01,2.56,0.00,6.13,17.15,0.00,21.92,3.29,0.00,0.00,0.00,0.00,11.58,0.00,0.00,2.02,17.67,0.00,8.20,1.67,3.04,0.00,0.00,0.12
0,12.11,0.00,0.00,1.44,18.10,0.00,0.00,2.54,24.07,2.56,0.00,6.09,16.51,0.00,20.55,3.00,0.00,0.00,0.00,0.00,11.55,0.00,0.00,2.00,17.67,0.00,8.20,1.65,3.05,0.00,0.00,0.12
0,11.68,0.00,0.00,1.32,18.01,0.00,0.00,2.65,23.64,2.56,0.00,6.03,16.56,0.00,20.55,3.08,0.00,0.00,0.00,0.00,11.39,0.00,0.00,1.97,17.85,0.00,8.20,1.66,3.09,0.00,0.00,0.12
0,11.19,0.00,0.00,1.20,18.02,0.00,0.00,2.67,23.80,2.56,0.00,6.00,16.10,0.00,21.92,2.90,0.00,0.00,0.00,0.00,11.37,0.00,0.00,2.04,17.29,0.00,4.92,1.65,2.95,0.00,0.00,0.11
0,11.50,0.00,0.00,1.25,17.65,0.00,0.00,2.58,23.85,2.56,0.00,6.02,16.26,0.00,23.29,3.01,0.00,0.00,0.00,0.00,11.06,0.00,0.00,1.93,17.73,0.00,4.92,1.73,2.91,0.00,0.00,0.11
0,11.46,0.00,0.00,1.24,17.69,0.00,0.00,2.56,23.81,2.56,0.00,5.96,15.92,0.00,21.92,2.95,0.00,0.00,0.00,0.00,11.12,0.00,0.00,1.97,17.78,0.00,4.92,1.64,2.98,0.00,0.00,0.11
0,11.32,0.00,0.00,1.21,16.99,0.00,0.00,2.35,23.57,2.56,0.00,5.99,16.09,0.00,23.29,3.00,0.00,0.00,0.00,0.00,10.72,0.00,0.00,1.79,17.29,0.00,3.28,1.54,2.90,0.00,0.00,0.11
0,11.63,0.00,0.00,1.24,16.81,0.00,0.00,2.31,23.39,2.56,0.00,5.79,15.67,0.00,23.29,2.84,0.00,0.00,0.00,0.00,10.61,0.00,0.00,1.64,17.41,0.00,3.28,1.50,2.94,0.00,0.00,0.11
0,11.86,0.00,0.00,1.28,16.91,0.00,0.00,2.36,22.28,0.00,0.00,4.88,15.13,0.00,21.92,2.63,0.00,0.00,0.00,0.00,10.92,0.00,0.00,1.75,18.10,0.00,6.56,1.71,3.02,0.00,0.00,0.12
0,11.71,0.00,0.00,1.26,17.38,0.00,0.00,2.52,22.18,0.00,0.00,4.73,14.59,0.00,20.55,2.45,0.00,0.00,0.00,0.00,10.60,0.00,0.00,1.65,18.02,0.00,6.56,1.70,2.91,0.00,0.00,0.11
0,11.53,0.00,0.00,1.23,17.21,0.00,0.00,2.51,22.39,0.00,0.00,4.85,14.64,0.00,20.55,2.52,0.00,0.00,0.00,0.00,10.36,0.00,0.00,1.58,17.87,0.00,6.56,1.70,2.91,0.00,0.00,0.11
0,12.07,0.00,0.00,1.30,17.88,0.00,0.00,2.58,23.10,0.00,0.00,5.05,14.68,0.00,20.55,2.48,0.00,0.00,0.00,0.00,10.12,0.00,0.00,1.53,17.73,0.00,6.56,1.66,3.01,0.00,0.00,0.12
0,11.95,0.00,0.00,1.29,17.79,0.00,0.00,2.57,22.75,0.00,0.00,4.94,14.92,0.00,21.92,2.58,0.00,0.00,0.00,0.00,9.97,0.00,0.00,1.48,17.16,0.00,3.28,1.58,2.85,0.00,0.00,0.11
0,12.44,0.00,0.00,1.37,17.74,0.00,0.00,2.51,23.11,0.00,0.00,4.98,14.72,0.00,21.92,2.52,0.00,0.00,0.00,0.00,9.58,0.00,0.00,1.41,16.93,0.00,3.28,1.56,2.82,0.00,0.00,0.11
0,11.83,0.00,0.00,1.27,17.92,0.00,0.00,2.57,23.74,0.00,0.00,5.34,14.75,0.00,20.55,2.65,0.00,0.00,0.00,0.00,9.47,0.00,0.00,1.36,16.65,0.00,3.28,1.45,2.87,0.00,0.00,0.11
0,11.80,0.00,0.00,1.27,18.11,0.00,0.00,2.78,24.45,0.00,0.00,5.49,15.05,0.00,21.92,2.75,0.00,0.00,0.00,0.00,9.92,0.00,0.00,1.57,17.81,0.00,4.92,1.73,2.75,0.00,0.00,0.11
0,12.12,0.00,0.00,1.35,18.39,0.00,0.00,2.83,24.89,0.00,0.00,5.61,14.90,0.00,20.55,2.76,0.00,0.00,0.00,0.00,10.01,0.00,0.00,1.58,17.55,0.00,4.92,1.72,2.78,0.00,0.00,0.11
0,11.76,0.00,0.00,1.28,18.82,0.00,0.00,2.97,25.32,0.00,0.00,5.64,15.38,0.00,21.92,2.88,0.00,0.00,0.00,0.00,10.26,0.00,0.00,1.63,17.85,0.00,4.92,1.78,2.73,0.00,0.00,0.10
0,11.51,0.00,0.00,1.19,18.42,0.00,0.00,2.93,25.34,0.00,0.00,5.52,15.35,0.00,20.55,2.86,0.00,0.00,0.00,0.00,10.06,0.00,0.00,1.60,17.64,0.00,4.92,1.76,2.76,0.00,0.00,0.10
0,11.91,0.00,0.00,1.30,18.16,0.00,0.00,2.91,26.01,0.00,0.00,5.80,15.16,0.00,20.55,2.80,0.00,0.00,0.00,0.00,10.10,0.00,0.00,1.59,18.06,0.00,4.92,1.79,2.86,0.00,0.00,0.10
0,11.43,0.00,0.00,1.24,17.70,0.00,0.00,2.78,26.47,0.00,0.00,6.11,15.71,0.00,23.29,2.96,0.00,0.00,0.00,0.00,10.29,0.00,0.00,1.65,18.08,0.00,4.92,1.81,2.84,0.00,0.00,0.10
0,11.53,0.00,0.00,1.24,17.42,0.00,0.00,2.76,25.71,0.00,0.00,5.88,15.41,0.00,20.55,2.91,0.00,0.00,0.00,0.00,10.37,0.00,0.00,1.64,18.03,0.00,4.92,1.78,2.87,0.00,0.00,0.10
0,11.72,0.00,0.00,1.29,17.26,0.00,0.00,2.76,25.38,0.00,0.00,5.86,15.16,0.00,20.55,2.89,0.00,0.00,0.00,0.00,9.74,0.00,0.00,1.50,18.43,0.00,4.92,1.84,2.98,0.00,0.00,0.11
0,11.47,0.00,0.00,1.26,16.59,0.00,0.00,2.59,25.98,0.00,0.00,6.47,15.11,0.00,21.92,2.78,0.00,0.00,0.00,0.00,9.68,0.00,0.00,1.47,18.07,0.00,4.92,1.87,2.98,0.00,0.00,0.10
0,11.71,0.00,0.00,1.34,16.28,0.00,0.00,2.49,24.75,0.00,0.00,6.23,14.73,0.00,19.18,2.72,0.00,0.00,0.00,0.00,9.32,0.00,0.00,1.36,17.72,0.00,4.92,1.79,3.06,0.00,0.00,0.11
0,11.82,0.00,0.00,1.32,16.62,0.00,0.00,2.54,25.28,0.00,0.00,6.42,15.25,0.00,20.55,2.93,0.00,0.00,0.00,0.00,9.37,0.00,0.00,1.36,17.96,0.00,6.56,1.84,3.18,0.00,0.00,0.11
0,11.85,0.00,0.00,1.32,17.46,0.00,0.00,2.90,26.44,2.56,0.00,6.95,15.93,0.00,21.92,3.12,0.00,0.00,0.00,0.00,9.47,0.00,0.00,1.40,17.47,0.00,6.56,1.79,3.07,0.00,0.00,0.10
0,12.01,0.00,0.00,1.38,17.44,0.00,0.00,2.91,26.05,2.56,0.00,6.82,16.14,0.00,21.92,3.18,0.00,0.00,0.00,0.00,9.55,0.00,0.00,1.39,17.67,0.00,8.20,1.83,3.02,0.00,0.00,0.10
0,12.70,0.00,0.00,1.57,16.76,0.00,0.00,2.68,26.16,2.56,0.00,6.76,16.45,0.00,21.92,3.20,0.00,0.00,0.00,0.00,9.31,0.00,0.00,1.39,17.34,0.00,8.20,1.82,3.08,0.00,0.00,0.10
0,12.65,0.00,0.00,1.54,16.36,0.00,0.00,2.54,27.09,2.56,0.00,7.32,16.22,0.00,20.55,3.07,0.00,0.00,0.00,0.00,8.92,0.00,0.00,1.24,16.45,0.00,4.92,1.60,3.10,0.00,0.00,0.10
0,12.70,0.00,0.00,1.53,16.16,0.00,0.00,2.48,26.72,2.56,0.00,7.17,16.42,0.00,21.92,3.13,0.00,0.00,0.00,0.00,8.91,0.00,0.00,1.24,16.64,0.00,4.92,1.63,3.11,0.00,0.00,0.10
0,13.12,0.00,0.00,1.57,16.27,0.00,0.00,2.51,26.39,2.56,0.00,7.03,16.83,0.00,21.92,3.27,0.00,0.00,0.00,0.00,8.96,0.00,0.00,1.25,17.72,0.00,6.56,1.83,3.21,0.00,0.00,0.11
0,12.83,0.00,0.00,1.52,15.99,0.00,0.00,2.46,26.53,2.56,0.00,7.16,16.63,0.00,21.92,3.25,0.00,0.00,0.00,0.00,9.03,0.00,0.00,1.25,18.02,0.00,6.56,1.85,3.07,0.00,0.00,0.10
0,13.34,0.00,0.00,1.61,15.85,0.00,0.00,2.46,26.30,2.56,0.00,7.49,15.97,0.00,19.18,3.13,0.00,0.00,0.00,0.00,9.07,0.00,0.00,1.29,17.73,0.00,6.56,1.83,3.08,0.00,0.00,0.10
0,13.00,0.00,0.00,1.54,15.88,0.00,0.00,2.45,26.48,2.56,0.00,8.02,16.09,0.00,19.18,3.19,0.00,0.00,0.00,0.00,9.26,0.00,0.00,1.32,18.05,0.00,6.56,1.88,3.18,0.00,0.00,0.11
0,13.30,0.00,0.00,1.64,15.81,0.00,0.00,2.45,26.40,2.56,0.00,8.11,15.88,0.00,17.81,3.15,0.00,0.00,0.00,0.00,9.35,0.00,0.00,1.37,18.53,0.00,6.56,1.92,3.10,0.00,0.00,0.11
0,13.42,0.00,0.00,1.65,15.62,0.00,0.00,2.32,26.49,2.56,0.00,8.53,16.25,0.00,17.81,3.41,0.00,0.00,0.00,0.00,8.85,0.00,0.00,1.24,17.86,0.00,4.92,1.71,3.11,0.00,0.00,0.11
0,13.46,0.00,0.00,1.64,15.76,0.00,0.00,2.31,26.61,2.56,0.00,8.54,16.20,0.00,16.44,3.37,0.00,0.00,0.00,0.00,9.05,0.00,0.00,1.23,18.64,0.00,6.56,1.81,3.21,0.00,0.00,0.12
0,13.45,0.00,0.00,1.59,15.34,0.00,0.00,2.20,26.40,2.56,0.00,8.66,15.67,0.00,15.07,3.20,0.00,0.00,0.00,0.00,9.30,0.00,0.00,1.28,18.97,0.00,6.56,1.84,3.17,0.00,0.00,0.12
0,13.47,0.00,0.00,1.60,15.82,0.00,0.00,2.25,26.07,2.56,0.00,8.80,15.21,0.00,13.70,3.05,0.00,0.00,0.00,0.00,9.29,0.00,0.00,1.28,19.64,0.00,8.20,1.98,3.25,0.00,0.00,0.12
0,13.15,0.00,0.00,1.53,15.28,0.00,0.00,2.16,25.52,2.56,0.00,8.86,15.41,0.00,13.70,3.21,0.00,0.00,0.00,0.00,10.09,0.00,0.00,1.51,20.37,0.00,9.84,2.07,3.29,0.00,0.00,0.13
0,13.61,0.00,0.00,1.59,15.47,0.00,0.00,2.17,25.27,2.56,0.00,8.60,14.96,0.00,10.96,3.12,0.00,0.00,0.00,0.00,9.73,0.00,0.00,1.47,19.99,0.00,9.84,1.96,3.24,0.00,0.00,0.13
0,13.87,0.00,0.00,1.70,15.61,0.00,0.00,2.29,26.11,5.13,0.00,9.81,15.28,0.00,13.70,3.16,0.00,0.00,0.00,0.00,9.79,0.00,0.00,1.50,20.22,0.00,11.48,2.04,3.31,0.00,0.00,0.13
0,13.13,0.00,0.00,1.58,15.77,0.00,0.00,2.36,27.96,5.13,0.00,10.88,15.64,0.00,13.70,3.21,0.00,0.00,0.00,0.00,9.92,0.00,0.00,1.51,20.20,0.00,11.48,2.04,3.30,0.00,0.00,0.13
0,13.56,0.00,0.00,1.65,16.16,0.00,0.00,2.45,28.80,7.69,0.00,12.15,15.73,0.00,12.33,3.21,0.00,0.00,0.00,0.00,10.04,0.00,0.00,1.53,21.12,0.00,14.75,2.15,3.23,0.00,0.00,0.13
0,13.62,0.00,0.00,1.64,16.20,0.00,0.00,2.46,30.05,7.69,0.00,12.83,15.60,0.00,12.33,3.07,0.00,0.00,0.00,0.00,10.24,0.00,0.00,1.60,22.09,0.00,14.75,2.27,3.17,0.00,0.00,0.13
0,13.34,0.00,0.00,1.61,15.81,0.00,0.00,2.45,30.80,7.69,0.00,13.34,14.80,0.00,9.59,2.76,0.00,0.00,0.00,0.00,10.29,0.00,0.00,1.58,21.67,0.00,13.11,2.17,3.01,0.00,0.00,0.12
0,13.79,0.00,0.00,1.69,15.17,0.00,0.00,2.14,30.17,5.13,0.00,13.01,14.37,0.00,8.22,2.62,0.00,0.00,0.00,0.00,10.21,0.00,0.00,1.53,22.09,0.00,13.11,2.21,2.97,0.00,0.00,0.12
0,13.52,0.00,0.00,1.66,15.22,0.00,0.00,2.15,30.68,5.13,0.00,13.16,14.05,0.00,6.85,2.54,0.00,0.00,0.00,0.00,10.06,0.00,0.00,1.50,21.74,0.00,13.11,2.16,3.00,0.00,0.00,0.12
0,12.87,0.00,0.00,1.48,15.35,0.00,0.00,2.16,32.10,5.13,0.00,14.11,14.11,0.00,6.85,2.55,0.00,0.00,0.00,0.00,10.13,0.00,0.00,1.53,21.74,0.00,13.11,2.16,2.92,0.00,0.00,0.12
0,12.61,0.00,0.00,1.45,15.93,0.00,0.00,2.27,31.89,5.13,0.00,13.98,14.13,0.00,8.22,2.66,0.00,0.00,0.00,0.00,10.04,0.00,0.00,1.49,21.98,0.00,13.11,2.17,2.89,0.00,0.00,0.12
0,13.22,0.00,0.00,1.67,15.09,0.00,0.00,2.16,32.97,7.69,0.00,15.23,14.34,0.00,8.22,2.73,0.00,0.00,0.00,0.00,9.81,0.00,0.00,1.47,21.72,0.00,13.11,2.17,2.94,0.00,0.00,0.12
0,12.79,0.00,0.00,1.63,14.93,0.00,0.00,2.14,34.48,7.69,0.00,16.06,13.61,0.00,6.85,2.55,0.00,0.00,0.00,0.00,10.16,0.00,0.00,1.55,21.30,0.00,11.48,2.04,2.88,0.00,0.00,0.11
0,13.17,1.27,0.00,1.83,15.08,0.00,0.00,2.27,34.49,7.69,0.00,16.03,13.94,0.00,6.85,2.60,0.00,0.00,0.00,0.00,9.90,0.00,0.00,1.56,20.92,0.00,11.48,1.99,2.92,0.00,0.00,0.12
0,13.05,1.27,0.00,1.79,15.04,0.00,0.00,2.27,35.56,7.69,0.00,16.76,14.22,0.00,6.85,2.69,0.00,0.00,0.00,0.00,9.73,0.00,0.00,1.53,21.37,0.00,11.48,2.05,3.11,0.00,0.00,0.13
0,12.98,1.27,0.00,1.78,15.00,0.00,0.00,2.25,35.88,7.69,0.00,16.89,14.49,0.00,8.22,2.72,0.00,0.00,0.00,0.00,9.62,0.00,0.00,1.49,22.21,0.00,13.11,2.16,2.95,0.00,0.00,0.12
0,13.31,1.27,0.00,1.83,14.77,0.00,0.00,2.20,36.25,7.69,0.00,17.33,14.55,0.00,9.59,2.69,0.00,0.00,0.00,0.00,9.45,0.00,0.00,1.41,21.93,0.00,13.11,2.16,2.94,0.00,0.00,0.12
0,12.89,1.27,0.00,1.79,14.24,0.00,0.00,2.12,37.45,7.69,0.00,18.21,13.91,0.00,8.22,2.33,0.00,0.00,0.00,0.00,9.25,0.00,0.00,1.33,21.69,0.00,13.11,2.14,3.07,0.00,0.00,0.12
0,13.57,1.27,0.00,1.96,13.86,0.00,0.00,2.06,37.71,7.69,0.00,18.08,13.79,0.00,8.22,2.33,0.00,0.00,0.00,0.00,9.33,0.00,0.00,1.38,20.43,0.00,11.48,1.98,2.99,0.00,0.00,0.12
0,13.51,1.27,0.00,1.97,13.94,0.00,0.00,2.07,37.41,7.69,0.00,18.12,14.19,0.00,9.59,2.47,0.00,0.00,0.00,0.00,10.71,2.82,0.00,2.26,20.23,0.00,13.11,1.97,3.03,0.00,0.00,0.12
0,13.78,1.27,0.00,2.03,13.61,0.00,0.00,2.02,36.70,7.69,0.00,17.53,14.47,0.00,10.96,2.54,0.00,0.00,0.00,0.00,11.05,2.82,0.00,2.42,19.86,0.00,11.48,1.83,3.03,0.00,0.00,0.12
0,14.09,1.27,0.00,2.07,14.24,0.00,0.00,2.11,37.37,7.69,0.00,17.60,14.45,0.00,10.96,2.56,0.00,0.00,0.00,0.00,11.43,2.82,0.00,2.59,19.41,0.00,11.48,1.76,2.99,0.00,0.00,0.11
0,15.63,2.53,2.00,3.06,13.92,0.00,0.00,2.14,37.59,7.69,0.00,17.52,14.67,0.00,10.96,2.62,0.00,0.00,0.00,0.00,12.14,4.23,0.00,2.99,19.91,0.00,13.11,1.85,3.04,0.00,0.00,0.11
0,18.50,6.33,4.00,5.37,14.11,0.00,0.00,2.05,37.45,5.13,0.00,16.91,15.22,0.00,10.96,3.01,0.00,0.00,0.00,0.00,15.10,9.86,0.00,4.87,19.83,0.00,11.48,1.83,3.04,0.00,0.00,0.11
0,19.91,7.59,4.00,6.15,14.37,0.00,0.00,2.05,36.77,5.13,0.00,16.19,15.80,0.00,12.33,3.40,0.00,0.00,0.00,0.00,15.46,9.86,0.00,5.25,19.96,0.00,11.48,1.88,3.03,0.00,0.00,0.11
0,20.07,7.59,4.00,6.23,14.10,0.00,0.00,1.96,35.30,2.56,0.00,14.82,16.83,0.00,15.07,4.07,0.00,0.00,0.00,0.00,15.80,9.86,0.00,5.32,19.67,0.00,8.20,1.83,3.06,0.00,0.00,0.11
0,19.75,7.59,4.00,6.18,14.26,0.00,0.00,2.01,36.08,2.56,0.00,15.35,17.60,0.00,17.81,4.64,0.00,0.00,0.00,0.00,15.94,9.86,0.00,5.42,18.95,0.00,8.20,1.72,3.12,0.00,0.00,0.11
0,20.16,7.59,4.00,6.24,14.23,0.00,0.00,1.97,35.73,2.56,0.00,15.19,18.20,0.00,19.18,4.91,0.00,0.00,0.00,0.00,16.09,9.86,0.00,5.46,18.58,0.00,8.20,1.66,3.21,0.00,0.00,0.11
0,21.14,7.59,4.00,6.51,14.43,0.00,0.00,2.02,35.87,2.56,0.00,15.36,18.85,0.00,21.92,5.07,0.00,0.00,0.00,0.00,16.66,9.86,0.00,5.61,18.57,0.00,8.20,1.66,3.26,0.00,0.00,0.11
0,22.39,10.13,6.00,7.43,14.83,0.00,0.00,2.07,37.07,2.56,0.00,16.17,18.91,0.00,21.92,5.06,0.00,0.00,0.00,0.00,17.20,9.86,0.00,5.76,18.58,0.00,6.56,1.66,3.32,0.00,0.00,0.12
0,22.64,10.13,6.00,7.46,14.66,0.00,0.00,2.02,36.73,2.56,0.00,16.38,19.37,0.00,23.29,5.24,0.00,0.00,0.00,0.00,18.17,11.27,0.00,6.31,18.45,0.00,6.56,1.64,3.34,0.00,0.00,0.12
0,23.06,10.13,6.00,7.48,14.19,0.00,0.00,1.91,37.77,2.56,0.00,16.79,19.94,0.00,23.29,5.44,0.00,0.00,0.00,0.00,18.61,11.27,0.00,6.49,18.64,0.00,6.56,1.70,3.41,0.00,0.00,0.12
0,24.41,11.39,6.00,8.18,14.43,0.00,0.00,1.91,37.78,0.00,0.00,16.63,20.91,0.00,24.66,5.99,0.00,0.00,0.00,0.00,19.40,11.27,0.00,6.69,18.90,0.00,6.56,1.68,3.35,0.00,0.00,0.12
0,24.94,11.39,6.00,8.35,14.66,0.00,0.00,1.90,37.10,0.00,0.00,16.19,21.27,0.00,24.66,6.16,0.00,0.00,0.00,0.00,20.11,11.27,0.00,6.94,19.42,0.00,8.20,1.86,3.35,0.00,0.00,0.12
0,24.47,10.13,6.00,8.23,14.76,0.00,0.00,1.98,38.02,0.00,0.00,16.57,21.49,0.00,24.66,6.39,0.00,0.00,0.00,0.00,20.38,11.27,0.00,6.89,19.57,0.00,8.20,1.87,3.43,0.00,0.00,0.13
0,24.81,10.13,6.00,8.31,15.00,0.00,0.00,2.01,37.34,0.00,0.00,15.66,21.78,0.00,27.40,6.37,0.00,0.00,0.00,0.00,21.01,11.27,0.00,6.99,19.28,0.00,8.20,1.82,3.35,0.00,0.00,0.12
0,25.73,11.39,6.00,8.73,15.16,0.00,0.00,2.06,36.54,0.00,0.00,14.99,21.41,0.00,26.03,6.27,0.00,0.00,0.00,0.00,21.27,11.27,0.00,7.07,19.00,0.00,6.56,1.79,3.39,0.00,0.00,0.12
0,25.54,11.39,6.00,8.70,15.72,0.00,0.00,2.24,36.12,0.00,0.00,14.54,21.35,0.00,26.03,6.25,0.00,0.00,0.00,0.00,21.57,11.27,0.00,7.18,19.08,0.00,9.84,1.81,3.54,0.00,0.00,0.13
0,25.54,11.39,6.00,8.66,15.97,0.00,0.00,2.34,34.66,0.00,0.00,13.45,21.70,0.00,27.40,6.42,0.00,0.00,0.00,0.00,22.07,11.27,0.00,7.31,18.83,0.00,9.84,1.78,3.42,0.00,0.00,0.12
0,24.99,11.39,6.00,8.52,16.41,0.00,0.00,2.39,35.05,0.00,0.00,13.84,22.26,0.00,28.77,6.58,0.00,0.00,0.00,0.00,22.21,11.27,0.00,7.42,19.62,0.00,9.84,1.93,3.45,0.00,0.00,0.12
0,24.81,11.39,6.00,8.48,16.29,0.00,0.00,2.33,36.08,0.00,0.00,14.42,23.11,0.00,28.77,7.02,0.00,0.00,0.00,0.00,20.83,9.86,0.00,6.82,19.40,0.00,8.20,1.91,3.48,0.00,0.00,0.12
0,24.77,11.39,6.00,8.45,16.63,0.00,0.00,2.42,36.84,0.00,0.00,14.84,23.52,0.00,28.77,7.17,0.00,0.00,0.00,0.00,20.11,8.45,0.00,6.38,19.94,0.00,9.84,2.00,3.38,0.00,0.00,0.12
0,25.08,11.39,6.00,8.54,16.82,0.00,0.00,2.48,38.43,0.00,0.00,15.78,23.64,0.00,28.77,7.12,0.00,0.00,0.00,0.00,19.20,8.45,0.00,6.07,19.43,0.00,8.20,1.93,3.44,0.00,0.00,0.12
0,23.77,10.13,4.00,7.69,17.02,0.00,0.00,2.46,39.98,2.56,0.00,16.86,24.25,0.00,30.14,7.34,0.00,0.00,0.00,0.00,18.92,7.04,0.00,5.69,19.08,0.00,6.56,1.91,3.45,0.00,0.00,0.13
0,21.39,7.59,2.00,5.95,17.20,0.00,0.00,2.49,40.06,2.56,0.00,17.28,24.46,0.00,30.14,7.46,0.00,0.00,0.00,0.00,16.88,2.82,0.00,4.53,18.99,0.00,8.20,1.91,3.37,0.00,0.00,0.12
0,19.60,5.06,2.00,4.46,16.29,0.00,0.00,2.37,40.29,2.56,0.00,17.22,24.35,0.00,28.77,7.51,0.00,0.00,0.00,0.00,15.97,1.41,0.00,3.60,19.01,0.00,8.20,1.90,3.44,0.00,0.00,0.13
0,19.25,5.06,2.00,4.37,16.80,0.00,0.00,2.51,41.87,2.56,0.00,18.30,24.00,0.00,27.40,7.16,0.00,0.00,0.00,0.00,15.99,1.41,0.00,3.62,18.88,0.00,9.84,1.91,3.35,0.00,0.00,0.13
0,19.06,5.06,2.00,4.31,17.27,0.00,0.00,2.71,41.36,2.56,0.00,18.22,23.97,0.00,27.40,7.06,0.00,0.00,0.00,0.00,15.76,1.41,0.00,3.51,18.95,0.00,9.84,1.89,3.35,0.00,0.00,0.13
0,19.76,6.33,2.00,4.53,17.21,0.00,0.00,2.70,42.26,2.56,0.00,18.72,24.02,0.00,27.40,6.89,0.00,0.00,0.00,0.00,15.44,1.41,0.00,3.45,19.51,0.00,9.84,2.03,3.28,0.00,0.00,0.13
0,18.97,6.33,2.00,4.44,17.47,0.00,0.00,2.73,42.82,2.56,0.00,19.10,23.55,0.00,24.66,6.71,0.00,0.00,0.00,0.00,14.98,1.41,0.00,3.32,19.39,0.00,9.84,2.01,3.26,0.00,0.00,0.13
0,17.78,3.80,0.00,3.46,16.91,0.00,0.00,2.62,42.17,2.56,0.00,18.64,23.28,0.00,24.66,6.67,0.00,0.00,0.00,0.00,14.71,1.41,0.00,3.32,19.58,0.00,9.84,2.08,3.22,0.00,0.00,0.13
0,17.47,3.80,0.00,3.35,17.34,0.00,0.00,2.79,42.33,2.56,0.00,18.46,23.38,0.00,26.03,6.65,0.00,0.00,0.00,0.00,13.78,0.00,0.00,2.90,20.15,0.00,13.11,2.21,3.25,0.00,0.00,0.13
0,17.55,3.80,0.00,3.37,17.29,0.00,0.00,2.81,42.88,2.56,0.00,18.65,23.60,0.00,27.40,6.72,0.00,0.00,0.00,0.00,13.62,0.00,0.00,2.85,20.43,0.00,13.11,2.25,3.14,0.00,0.00,0.12
0,16.45,2.53,0.00,3.11,17.62,0.00,0.00,2.86,42.43,5.13,0.00,18.27,22.55,0.00,24.66,6.13,0.00,0.00,0.00,0.00,13.45,0.00,0.00,2.74,20.38,0.00,14.75,2.25,3.11,0.00,0.00,0.12
0,15.21,2.53,0.00,2.38,17.46,0.00,0.00,2.81,43.07,5.13,0.00,18.65,22.89,0.00,26.03,6.20,0.00,0.00,0.00,0.00,12.90,0.00,0.00,2.48,19.43,0.00,13.11,2.09,3.09,0.00,0.00,0.11
0,14.91,2.53,0.00,2.29,17.10,0.00,0.00,2.59,44.11,7.69,0.00,19.69,23.43,0.00,27.40,6.38,0.00,0.00,0.00,0.00,12.40,0.00,0.00,2.39,18.92,0.00,13.11,2.02,2.96,0.00,0.00,0.10
0,14.53,2.53,0.00,2.17,17.44,0.00,0.00,2.70,44.34,7.69,0.00,19.70,23.52,0.00,24.66,6.44,0.00,0.00,0.00,0.00,12.25,0.00,0.00,2.41,19.80,0.00,14.75,2.17,2.94,0.00,0.00,0.10
0,14.03,1.27,0.00,1.89,17.76,0.00,0.00,2.75,44.38,7.69,0.00,19.90,23.90,0.00,24.66,6.48,0.00,0.00,0.00,0.00,12.71,0.00,0.00,2.60,20.71,0.00,18.03,2.29,2.89,0.00,0.00,0.09
0,13.87,1.27,0.00,1.85,17.05,0.00,0.00,2.50,44.22,7.69,0.00,20.12,23.61,0.00,23.29,6.43,0.00,0.00,0.00,0.00,12.53,0.00,0.00,2.55,20.47,0.00,14.75,2.28,2.76,0.00,0.00,0.09
0,13.59,1.27,0.00,1.77,17.38,0.00,0.00,2.56,45.63,7.69,0.00,20.81,23.69,0.00,23.29,6.34,0.00,0.00,0.00,0.00,12.97,0.00,0.00,2.69,20.73,0.00,14.75,2.31,2.83,0.00,0.00,0.09
0,13.42,1.27,0.00,1.74,17.21,0.00,0.00,2.52,46.04,10.26,0.00,21.96,24.09,0.00,26.03,6.52,0.00,0.00,0.00,0.00,12.68,0.00,0.00,2.57,20.34,0.00,14.75,2.24,2.82,0.00,0.00,0.09
0,13.49,1.27,0.00,1.75,17.24,0.00,0.00,2.49,45.94,10.26,0.00,22.01,23.28,0.00,26.03,6.10,0.00,0.00,0.00,0.00,12.73,0.00,0.00,2.56,20.18,0.00,14.75,2.15,2.80,0.00,0.00,0.09
0,13.62,1.27,0.00,1.78,16.53,0.00,0.00,2.38,46.74,12.82,0.00,23.02,23.46,0.00,26.03,6.22,0.00,0.00,0.00,0.00,12.91,0.00,0.00,2.59,19.62,0.00,13.11,2.06,2.88,0.00,0.00,0.10
0,12.77,1.27,0.00,1.55,16.20,0.00,0.00,2.30,45.56,12.82,0.00,22.72,23.30,0.00,27.40,6.23,0.00,0.00,0.00,0.00,12.61,0.00,0.00,2.53,19.77,0.00,13.11,2.07,2.83,0.00,0.00,0.09
0,12.82,1.27,0.00,1.56,15.81,0.00,0.00,2.24,44.90,10.26,0.00,21.81,23.26,0.00,28.77,6.22,0.00,0.00,0.00,0.00,12.19,0.00,0.00,2.47,20.45,0.00,13.11,2.14,2.79,0.00,0.00,0.09
0,12.48,1.27,0.00,1.53,16.19,0.00,0.00,2.30,44.61,10.26,0.00,21.56,22.15,0.00,26.03,5.75,0.00,0.00,0.00,0.00,12.15,0.00,0.00,2.38,21.38,0.00,13.11,2.39,2.85,0.00,0.00,0.10
0,12.04,1.27,0.00,1.48,16.61,0.00,0.00,2.43,44.79,10.26,0.00,21.95,21.78,0.00,27.40,5.41,0.00,0.00,0.00,0.00,12.24,0.00,0.00,2.32,21.23,0.00,13.11,2.33,2.74,0.00,0.00,0.09
0,12.89,1.27,0.00,1.73,16.41,0.00,0.00,2.34,44.04,10.26,0.00,20.92,21.34,0.00,26.03,5.14,0.00,0.00,0.00,0.00,12.28,0.00,0.00,2.43,21.10,0.00,11.48,2.27,2.90,0.00,0.00,0.09
0,12.90,1.27,0.00,1.72,16.14,0.00,0.00,2.21,43.38,10.26,0.00,20.01,20.12,0.00,23.29,4.71,0.00,0.00,0.00,0.00,12.39,0.00,0.00,2.49,21.88,0.00,14.75,2.41,2.96,0.00,0.00,0.10
0,11.76,0.00,0.00,1.43,16.02,0.00,0.00,2.21,41.66,10.26,0.00,19.00,19.81,0.00,21.92,4.61,0.00,0.00,0.00,0.00,12.60,0.00,0.00,2.62,21.66,0.00,14.75,2.35,3.01,0.00,0.00,0.10
0,11.87,0.00,0.00,1.45,15.74,0.00,0.00,2.13,40.65,10.26,0.00,18.38,20.05,0.00,24.66,4.67,0.00,0.00,0.00,0.00,12.52,0.00,0.00,2.62,21.26,0.00,14.75,2.32,3.02,0.00,0.00,0.10
0,11.38,0.00,0.00,1.31,16.14,0.00,0.00,2.28,40.01,10.26,0.00,18.08,20.28,0.00,24.66,4.85,0.00,0.00,0.00,0.00,12.37,0.00,0.00,2.56,21.69,0.00,18.03,2.38,3.08,0.00,0.00,0.11
0,11.15,0.00,0.00,1.31,16.20,0.00,0.00,2.26,38.82,10.26,0.00,17.37,20.09,0.00,21.92,5.02,0.00,0.00,0.00,0.00,12.33,0.00,0.00,2.43,20.98,0.00,14.75,2.21,2.94,0.00,0.00,0.10
0,11.33,0.00,0.00,1.36,16.57,0.00,0.00,2.20,38.35,10.26,0.00,16.96,19.85,0.00,19.18,4.97,0.00,0.00,0.00,0.00,12.98,0.00,0.00,2.65,21.27,0.00,14.75,2.24,3.03,0.00,0.00,0.10
0,10.99,0.00,0.00,1.29,17.28,0.00,0.00,2.38,36.50,7.69,0.00,16.24,19.73,0.00,21.92,4.95,0.00,0.00,0.00,0.00,12.74,0.00,0.00,2.67,21.56,0.00,16.39,2.40,3.02,0.00,0.00,0.10
0,10.89,0.00,0.00,1.25,17.25,0.00,0.00,2.36,36.65,7.69,0.00,15.86,19.35,0.00,20.55,4.82,0.00,0.00,0.00,0.00,13.01,0.00,0.00,2.77,21.70,0.00,16.39,2.41,3.00,0.00,0.00,0.10
0,11.35,0.00,0.00,1.40,17.01,0.00,0.00,2.35,35.68,5.13,0.00,15.11,18.47,0.00,20.55,4.45,0.00,0.00,0.00,0.00,12.93,0.00,0.00,2.73,21.97,0.00,16.39,2.41,3.06,0.00,0.00,0.11
0,11.88,0.00,0.00,1.52,16.89,0.00,0.00,2.33,35.35,5.13,0.00,14.75,18.33,0.00,20.55,4.43,0.00,0.00,0.00,0.00,13.16,0.00,0.00,2.77,22.11,0.00,16.39,2.45,2.98,0.00,0.00,0.11
0,11.50,0.00,0.00,1.42,16.69,0.00,0.00,2.36,35.47,5.13,0.00,14.71,18.11,0.00,20.55,4.44,0.00,0.00,0.00,0.00,12.39,0.00,0.00,2.63,20.80,0.00,13.11,2.32,3.10,0.00,0.00,0.11
0,11.51,0.00,0.00,1.41,16.87,0.00,0.00,2.38,35.30,5.13,0.00,14.78,18.29,0.00,20.55,4.62,0.00,0.00,0.00,0.00,11.83,0.00,0.00,2.34,20.64,0.00,13.11,2.24,3.13,0.00,0.00,0.11
0,11.81,0.00,0.00,1.47,16.68,0.00,0.00,2.30,34.00,5.13,0.00,13.71,18.19,0.00,20.55,4.61,0.00,0.00,0.00,0.00,11.72,0.00,0.00,2.32,20.94,0.00,16.39,2.25,3.14,0.00,0.00,0.11
0,12.21,0.00,0.00,1.54,16.23,0.00,0.00,2.23,33.41,2.56,0.00,12.90,17.82,0.00,17.81,4.58,0.00,0.00,0.00,0.00,11.35,0.00,0.00,2.18,21.01,0.00,16.39,2.27,3.22,0.00,0.00,0.12
0,12.77,0.00,0.00,1.67,16.49,0.00,0.00,2.28,32.32,2.56,0.00,12.05,18.04,0.00,17.81,4.67,0.00,0.00,0.00,0.00,11.22,0.00,0.00,2.13,21.47,0.00,18.03,2.34,3.19,0.00,0.00,0.12
0,12.68,0.00,0.00,1.78,17.12,0.00,0.00,2.38,33.27,2.56,0.00,12.43,17.42,0.00,16.44,4.40,0.00,0.00,0.00,0.00,11.51,0.00,0.00,2.27,21.41,0.00,18.03,2.34,3.28,0.00,0.00,0.12
0,12.99,0.00,0.00,1.84,17.57,0.00,0.00,2.69,33.10,2.56,0.00,12.38,17.34,0.00,16.44,4.20,0.00,0.00,0.00,0.00,11.64,0.00,0.00,2.32,21.85,0.00,19.67,2.39,3.23,0.00,0.00,0.12
0,13.05,0.00,0.00,1.84,17.23,0.00,0.00,2.66,32.99,2.56,0.00,12.31,16.68,0.00,13.70,3.83,0.00,0.00,0.00,0.00,11.70,0.00,0.00,2.29,21.99,0.00,21.31,2.44,3.32,0.00,0.00,0.12
0,13.19,0.00,0.00,1.87,17.28,0.00,0.00,2.69,32.30,2.56,0.00,12.00,16.81,0.00,15.07,3.87,0.00,0.00,0.00,0.00,11.35,0.00,0.00,2.20,20.80,0.00,19.67,2.17,3.31,0.00,0.00,0.12
0,13.32,0.00,0.00,1.88,16.79,0.00,0.00,2.51,31.35,2.56,0.00,11.38,16.76,0.00,13.70,3.82,0.00,0.00,0.00,0.00,11.12,0.00,0.00,2.17,20.68,0.00,19.67,2.09,3.22,0.00,0.00,0.12
0,13.06,0.00,0.00,1.79,16.58,0.00,0.00,2.49,31.44,2.56,0.00,11.72,16.84,0.00,13.70,3.86,0.00,0.00,0.00,0.00,11.03,0.00,0.00,2.11,20.73,0.00,21.31,2.15,3.27,0.00,0.00,0.12
0,12.86,0.00,0.00,1.73,15.83,0.00,0.00,2.32,31.10,2.56,0.00,11.85,17.18,0.00,13.70,4.06,0.00,0.00,0.00,0.00,10.45,0.00,0.00,1.93,19.88,0.00,18.03,2.00,3.19,0.00,0.00,0.12
0,13.22,0.00,0.00,1.81,15.87,0.00,0.00,2.33,32.09,2.56,0.00,12.56,17.57,0.00,13.70,4.36,0.00,0.00,0.00,0.00,10.47,0.00,0.00,1.88,19.69,0.00,18.03,1.97,3.28,0.00,0.00,0.13
0,13.55,0.00,0.00,1.97,16.00,0.00,0.00,2.36,32.46,2.56,0.00,12.72,17.45,0.00,12.33,4.48,0.00,0.00,0.00,0.00,10.58,0.00,0.00,1.98,20.09,0.00,18.03,2.05,3.41,0.00,0.00,0.13
0,13.74,0.00,0.00,2.03,15.96,0.00,0.00,2.27,33.56,2.56,0.00,13.43,17.74,0.00,13.70,4.50,0.00,0.00,0.00,0.00,10.67,0.00,0.00,1.95,19.42,0.00,14.75,1.93,3.30,0.00,0.00,0.13
0,13.58,0.00,0.00,1.99,15.81,0.00,0.00,2.25,34.43,2.56,0.00,13.88,17.79,0.00,15.07,4.45,0.00,0.00,0.00,0.00,10.69,0.00,0.00,1.95,19.53,0.00,14.75,1.95,3.33,0.00,0.00,0.13
0,14.86,2.53,2.00,2.56,15.62,0.00,0.00,2.26,35.82,2.56,0.00,15.13,17.95,0.00,16.44,4.36,0.00,0.00,0.00,0.00,10.76,0.00,0.00,1.99,19.16,0.00,14.75,1.88,3.32,0.00,0.00,0.13
0,14.98,2.53,2.00,2.58,14.33,0.00,0.00,2.02,36.54,2.56,0.00,15.56,18.00,0.00,15.07,4.50,0.00,0.00,0.00,0.00,9.50,0.00,0.00,1.51,18.23,0.00,11.48,1.61,3.33,0.00,0.00,0.13
0,15.62,2.53,2.00,2.74,15.00,0.00,0.00,2.31,36.82,2.56,0.00,16.18,18.24,0.00,16.44,4.52,0.00,0.00,0.00,0.00,9.61,0.00,0.00,1.57,18.63,0.00,11.48,1.67,3.30,0.00,0.00,0.12
0,15.45,2.53,2.00,2.69,15.21,0.00,0.00,2.35,36.07,2.56,0.00,15.97,18.80,0.00,16.44,4.78,0.00,0.00,0.00,0.00,9.66,0.00,0.00,1.51,19.27,0.00,11.48,1.75,3.20,0.00,0.00,0.12
0,15.32,2.53,2.00,2.56,14.81,0.00,0.00,2.30,35.56,2.56,0.00,15.78,18.47,0.00,16.44,4.65,0.00,0.00,0.00,0.00,9.66,0.00,0.00,1.53,18.61,0.00,9.84,1.64,3.27,0.00,0.00,0.12
0,15.81,2.53,2.00,2.72,14.61,0.00,0.00,2.16,34.86,2.56,0.00,15.19,18.51,0.00,17.81,4.59,0.00,0.00,0.00,0.00,9.78,0.00,0.00,1.55,18.97,0.00,9.84,1.65,3.31,0.00,0.00,0.12
0,15.94,2.53,2.00,2.75,14.63,0.00,0.00,2.16,35.08,2.56,0.00,14.97,18.19,0.00,17.81,4.43,0.00,0.00,0.00,0.00,10.32,0.00,0.00,1.62,18.84,0.00,9.84,1.64,3.32,0.00,0.00,0.12
0,15.98,2.53,2.00,2.71,14.55,0.00,0.00,2.20,35.29,2.56,0.00,14.98,18.08,0.00,17.81,4.37,0.00,0.00,0.00,0.00,10.34,0.00,0.00,1.72,18.92,0.00,6.56,1.70,3.30,0.00,0.00,0.12
0,16.18,2.53,2.00,2.77,14.45,0.00,0.00,2.16,34.41,2.56,0.00,14.60,17.44,0.00,16.44,4.11,0.00,0.00,0.00,0.00,10.14,0.00,0.00,1.65,18.80,0.00,6.56,1.67,3.28,0.00,0.00,0.11
0,15.52,2.53,2.00,2.62,14.70,0.00,0.00,2.25,34.31,2.56,0.00,14.32,16.96,0.00,15.07,3.83,0.00,0.00,0.00,0.00,10.35,0.00,0.00,1.66,18.50,0.00,4.92,1.60,3.31,0.00,0.00,0.11
0,15.94,2.53,2.00,2.84,15.18,0.00,0.00,2.32,32.43,0.00,0.00,12.86,17.48,0.00,17.81,4.14,0.00,0.00,0.00,0.00,10.12,0.00,0.00,1.62,18.49,0.00,4.92,1.58,3.25,0.00,0.00,0.11
0,16.33,2.53,2.00,2.87,14.29,0.00,0.00,1.95,33.02,0.00,0.00,12.91,17.78,0.00,19.18,4.37,0.00,0.00,0.00,0.00,9.85,0.00,0.00,1.47,17.77,0.00,3.28,1.51,3.25,0.00,0.00,0.11
0,17.18,2.53,2.00,3.06,14.23,0.00,0.00,1.96,33.58,0.00,0.00,13.13,17.94,0.00,19.18,4.47,0.00,0.00,0.00,0.00,10.09,0.00,0.00,1.59,17.37,0.00,1.64,1.45,3.07,0.00,0.00,0.10
0,17.55,2.53,2.00,3.20,14.14,0.00,0.00,1.96,33.53,0.00,0.00,13.51,17.92,0.00,19.18,4.56,0.00,0.00,0.00,0.00,10.41,0.00,0.00,1.63,17.07,0.00,1.64,1.42,3.14,0.00,0.00,0.10
0,17.95,2.53,2.00,3.27,14.15,0.00,0.00,2.04,34.56,0.00,0.00,14.11,18.64,0.00,21.92,4.88,0.00,0.00,0.00,0.00,10.74,0.00,0.00,1.69,17.42,0.00,1.64,1.53,3.22,0.00,0.00,0.11
0,19.19,6.33,2.00,3.80,14.17,0.00,0.00,2.07,35.25,0.00,0.00,14.22,19.51,0.00,24.66,5.28,0.00,0.00,0.00,0.00,10.47,0.00,0.00,1.57,17.49,0.00,1.64,1.60,3.16,0.00,0.00,0.10
0,20.46,7.59,2.00,4.18,14.45,0.00,0.00,2.16,34.59,0.00,0.00,13.54,20.24,0.00,27.40,5.63,0.00,0.00,0.00,0.00,10.93,0.00,0.00,1.66,17.89,0.00,1.64,1.68,3.09,0.00,0.00,0.10
1,22.22,8.86,2.00,5.21,15.09,0.00,0.00,2.38,33.46,0.00,0.00,12.58,20.09,0.00,28.77,5.33,0.00,0.00,0.00,0.00,11.88,1.41,0.00,2.13,18.70,0.00,1.64,1.75,3.00,0.00,0.00,0.09
1,25.78,15.19,6.00,7.82,16.10,0.00,0.00,2.81,32.77,0.00,0.00,12.45,20.12,0.00,28.77,5.44,0.00,0.00,0.00,0.00,13.94,5.63,0.00,3.88,19.15,0.00,1.64,1.86,3.18,0.00,0.00,0.11
1,32.79,24.05,18.00,11.90,17.09,0.00,0.00,3.28,33.63,0.00,0.00,13.05,23.19,2.44,32.88,7.39,0.00,0.00,0.00,0.00,17.97,9.86,1.96,7.41,20.38,0.00,4.92,2.02,3.36,0.00,0.00,0.12
1,37.81,30.38,28.00,16.10,18.85,2.22,0.00,4.51,33.68,0.00,0.00,12.91,26.42,9.76,39.73,9.20,0.00,0.00,0.00,0.00,21.23,15.49,5.88,10.41,22.23,0.00,9.84,2.43,4.05,0.00,0.00,0.27
1,39.12,31.65,28.00,17.56,20.76,2.22,0.00,5.81,34.65,0.00,0.00,12.68,28.60,9.76,45.21,9.78,0.00,0.00,0.00,0.00,24.60,21.13,11.76,14.07,24.64,3.12,14.75,3.50,4.75,0.00,0.00,0.38
1,43.68,35.44,32.00,22.58,21.75,2.22,0.00,6.00,33.54,0.00,0.00,11.75,30.81,12.20,49.32,11.35,0.00,0.00,0.00,0.00,27.99,25.35,13.73,18.41,25.91,3.12,21.31,3.76,5.48,0.00,0.00,0.46
1,48.20,37.97,38.00,30.78,22.55,2.22,0.00,6.06,32.67,0.00,0.00,10.99,34.86,14.63,54.79,14.56,0.00,0.00,0.00,0.00,31.04,30.99,15.69,22.12,26.93,3.12,24.59,3.92,6.46,0.00,0.00,0.83
1,53.94,43.04,44.00,36.89,23.61,2.22,0.00,6.55,33.76,0.00,0.00,11.34,37.28,19.51,57.53,16.89,0.00,0.00,0.00,0.00,34.29,36.62,19.61,25.15,28.34,3.12,29.51,4.19,6.83,0.00,0.00,0.91
1,57.74,46.84,48.00,40.39,23.87,2.22,0.00,6.61,34.81,0.00,0.00,12.05,40.04,21.95,63.01,18.82,0.00,0.00,0.00,0.00,36.90,40.85,21.57,27.90,28.71,3.12,31.15,4.23,8.20,0.00,0.00,1.27
1,63.49,54.43,56.00,45.30,24.24,2.22,0.00,6.74,36.02,0.00,0.00,12.44,45.44,24.39,65.75,25.46,0.00,0.00,0.00,0.00,40.62,45.07,25.49,32.17,29.89,6.25,36.07,4.63,10.02,0.00,0.00,1.91
1,67.63,56.96,60.00,50.58,24.58,2.22,0.00,6.99,37.53,5.13,0.00,13.17,48.08,26.83,68.49,28.27,0.00,0.00,0.00,0.00,43.84,49.30,27.45,35.84,30.68,6.25,36.07,4.79,10.45,0.00,0.00,2.01
1,70.57,60.76,62.00,52.87,25.25,2.22,0.00,7.22,38.26,7.69,0.00,14.04,52.87,31.71,75.34,31.64,0.00,0.00,0.00,0.00,47.24,53.52,31.37,39.59,32.62,6.25,42.62,5.22,10.95,0.00,0.00,2.08
1,75.79,65.82,68.00,58.39,26.36,2.22,0.00,7.45,39.37,7.69,0.00,14.90,54.90,31.71,78.08,33.34,0.00,0.00,0.00,0.00,49.45,57.75,33.33,41.43,33.45,6.25,45.90,5.32,11.69,0.00,0.00,2.25
1,79.51,68.35,70.00,63.10,26.68,2.22,0.00,7.59,40.24,10.26,0.00,15.42,58.08,34.15,83.56,35.22,0.00,0.00,0.00,0.00,52.02,63.38,33.33,43.05,34.36,6.25,49.18,5.49,12.01,0.00,0.00,2.30
1,84.01,72.15,76.00,69.42,27.12,2.22,0.00,7.87,40.73,10.26,0.00,15.43,60.01,34.15,86.30,36.87,0.00,0.00,0.00,0.00,52.83,64.79,33.33,43.52,35.86,6.25,50.82,6.08,12.32,0.00,0.00,2.35
1,88.84,75.95,82.00,74.73,27.35,2.22,0.00,7.96,39.12,10.26,0.00,15.04,60.59,34.15,87.67,36.95,0.00,0.00,0.00,0.00,54.81,67.61,35.29,44.92,36.27,6.25,50.82,6.16,12.69,0.00,0.00,2.40
1,91.33,77.22,86.00,77.67,27.70,2.22,0.00,7.97,38.21,10.26,0.00,14.45,63.74,36.59,93.15,38.53,0.00,0.00,0.00,0.00,56.18,69.01,35.29,45.50,36.22,6.25,50.82,6.15,12.92,0.00,0.00,2.42
1,94.14,81.01,88.00,79.15,27.45,2.22,0.00,7.89,39.58,10.26,0.00,15.52,65.13,39.02,94.52,39.84,0.00,0.00,0.00,0.00,58.50,71.83,37.25,47.72,37.13,6.25,52.46,6.31,12.98,0.00,0.00,2.42
1,100.23,86.08,94.00,86.23,27.80,2.22,0.00,7.86,38.89,10.26,0.00,14.88,65.00,39.02,93.15,39.73,0.00,0.00,0.00,0.00,59.79,73.24,37.25,48.27,36.52,6.25,52.46,6.20,13.23,0.00,0.00,2.44
1,101.44,86.08,96.00,88.19,28.36,2.22,0.00,7.97,38.21,10.26,0.00,14.39,66.47,41.46,93.15,40.73,0.00,0.00,0.00,0.00,61.85,76.06,39.22,50.01,36.87,6.25,54.10,6.17,13.52,0.00,0.00,2.47
1,105.63,87.34,102.00,93.47,28.41,2.22,0.00,7.97,38.84,10.26,0.00,14.38,68.81,46.34,94.52,43.77,0.00,0.00,0.00,0.00,64.04,80.28,39.22,51.12,37.50,6.25,55.74,6.36,14.08,0.00,0.00,2.56
1,109.11,92.41,108.00,96.14,28.57,2.22,0.00,7.88,39.28,10.26,0.00,14.46,70.88,48.78,95.89,45.45,0.00,0.00,0.00,0.00,65.05,81.69,39.22,52.32,37.43,6.25,55.74,6.33,14.30,0.00,0.00,2.60
1,109.08,89.87,110.00,97.58,28.02,2.22,0.00,7.59,40.24,10.26,0.00,15.00,71.99,48.78,98.63,45.83,0.00,0.00,0.00,0.00,64.84,78.87,41.18,51.61,37.12,6.25,55.74,6.36,14.83,0.00,0.00,2.68
1,107.84,87.34,106.00,96.78,28.27,2.22,0.00,7.82,39.29,10.26,0.00,14.29,71.84,46.34,102.74,44.83,0.00,0.00,0.00,0.00,65.25,80.28,45.10,52.72,36.56,6.25,54.10,6.27,15.08,0.00,0.00,2.80
1,106.90,83.54,102.00,97.22,26.51,0.00,0.00,6.71,39.23,10.26,0.00,14.04,69.94,43.90,97.26,44.03,0.00,0.00,0.00,0.00,62.48,76.06,41.18,49.18,34.90,6.25,49.18,5.96,15.09,0.00,0.00,2.81
1,107.33,82.28,102.00,99.80,25.82,0.00,0.00,5.40,37.83,10.26,0.00,13.33,68.30,39.02,90.41,43.74,0.00,0.00,0.00,0.00,60.79,71.83,33.33,48.48,33.21,3.12,45.90,5.06,14.79,0.00,0.00,2.75
1,107.51,82.28,104.00,98.52,25.03,0.00,0.00,5.16,38.19,10.26,0.00,13.28,68.93,41.46,87.67,44.89,0.00,0.00,0.00,0.00,61.39,74.65,37.25,47.71,32.47,3.12,40.98,4.95,14.38,0.00,0.00,2.67
1,107.03,83.54,102.00,97.94,24.51,0.00,0.00,5.20,38.14,10.26,0.00,13.44,66.52,41.46,84.93,41.91,0.00,0.00,0.00,0.00,59.30,70.42,35.29,43.78,32.02,3.12,39.34,4.97,13.51,0.00,0.00,2.31
1,105.74,82.28,98.00,96.07,23.37,0.00,0.00,4.68,37.20,10.26,0.00,13.11,63.66,36.59,83.56,40.02,0.00,0.00,0.00,0.00,57.68,67.61,31.37,41.78,30.72,3.12,36.07,4.69,13.51,0.00,0.00,2.28
1,106.18,83.54,102.00,95.57,23.56,0.00,0.00,4.70,37.17,10.26,0.00,12.90,66.83,41.46,86.30,41.34,0.00,0.00,0.00,0.00,58.23,69.01,35.29,41.55,30.93,3.12,34.43,4.75,12.76,0.00,0.00,2.03
1,104.74,81.01,98.00,96.00,24.08,0.00,0.00,4.85,36.69,10.26,0.00,12.91,61.83,36.59,86.30,34.03,0.00,0.00,0.00,0.00,56.55,67.61,31.37,39.00,29.98,0.00,29.51,4.47,11.21,0.00,0.00,1.40
1,105.23,82.28,102.00,94.06,23.71,0.00,0.00,4.67,34.97,5.13,0.00,12.37,59.31,34.15,84.93,31.62,0.00,0.00,0.00,0.00,54.15,64.79,29.41,35.84,30.46,0.00,31.15,4.51,10.72,0.00,0.00,1.27
1,105.51,81.01,104.00,94.82,23.61,0.00,0.00,4.63,33.87,2.56,0.00,11.34,59.51,34.15,84.93,31.62,0.00,0.00,0.00,0.00,52.50,61.97,27.45,33.50,29.61,0.00,29.51,4.33,10.47,0.00,0.00,1.22
1,103.42,81.01,100.00,93.52,22.65,0.00,0.00,4.32,33.08,2.56,0.00,10.47,55.85,29.27,84.93,28.09,0.00,0.00,0.00,0.00,50.18,57.75,23.53,31.60,28.23,0.00,24.59,4.05,10.06,0.00,0.00,1.12
1,102.15,79.75,100.00,90.74,22.29,0.00,0.00,4.29,33.30,0.00,0.00,10.17,56.23,31.71,83.56,28.63,0.00,0.00,0.00,0.00,49.21,56.34,23.53,30.67,27.92,0.00,24.59,4.00,9.73,0.00,0.00,1.04
1,100.97,79.75,100.00,87.32,21.43,0.00,0.00,3.93,33.63,0.00,0.00,10.81,54.95,31.71,82.19,27.10,0.00,0.00,0.00,0.00,50.20,59.15,25.49,31.29,26.10,0.00,21.31,3.41,9.71,0.00,0.00,1.01
1,101.33,81.01,102.00,87.15,21.20,0.00,0.00,3.74,34.13,0.00,0.00,11.24,54.30,31.71,80.82,26.95,0.00,0.00,0.00,0.00,48.59,56.34,23.53,30.11,25.54,0.00,21.31,3.22,9.48,0.00,0.00,0.98
1,102.21,84.81,102.00,88.79,21.10,0.00,0.00,3.80,34.64,0.00,0.00,11.51,53.71,31.71,79.45,26.79,0.00,0.00,0.00,0.00,48.85,56.34,23.53,30.12,25.62,0.00,21.31,3.24,9.80,0.00,0.00,1.03
1,104.99,88.61,108.00,90.59,21.02,0.00,0.00,3.75,32.90,0.00,0.00,9.98,54.48,31.71,82.19,26.00,0.00,0.00,0.00,0.00,46.86,54.93,21.57,28.39,24.99,0.00,19.67,3.12,9.87,0.00,0.00,1.04
1,103.12,88.61,110.00,86.91,21.42,0.00,0.00,3.99,33.03,0.00,0.00,9.97,56.02,31.71,86.30,27.36,0.00,0.00,0.00,0.00,46.86,54.93,21.57,28.65,25.21,0.00,19.67,3.14,9.72,0.00,0.00,1.03
1,105.37,89.87,112.00,89.12,21.51,0.00,0.00,4.17,33.57,0.00,0.00,10.14,57.20,36.59,89.04,27.64,0.00,0.00,0.00,0.00,47.47,53.52,21.57,29.00,25.21,0.00,18.03,3.12,9.85,0.00,0.00,1.05
1,104.97,89.87,112.00,87.35,21.58,0.00,0.00,4.16,33.39,0.00,0.00,10.14,56.01,34.15,90.41,25.50,0.00,0.00,0.00,0.00,47.49,53.52,21.57,29.74,24.86,0.00,16.39,2.96,9.69,0.00,0.00,1.06
1,102.30,86.08,106.00,86.03,22.07,0.00,0.00,4.24,34.78,2.56,0.00,11.28,55.62,34.15,89.04,25.15,0.00,0.00,0.00,0.00,46.43,50.70,21.57,28.84,24.80,0.00,19.67,3.01,9.71,0.00,0.00,1.04
1,101.49,86.08,102.00,84.58,22.02,0.00,0.00,4.30,33.93,2.56,0.00,11.21,54.97,31.71,89.04,24.37,0.00,0.00,0.00,0.00,46.16,50.70,21.57,28.75,25.64,0.00,22.95,3.05,9.94,0.00,0.00,1.11
1,102.80,89.87,106.00,85.79,21.23,0.00,0.00,4.01,34.22,2.56,0.00,11.37,55.85,36.59,86.30,25.38,0.00,0.00,0.00,0.00,43.29,47.89,15.69,25.60,25.18,0.00,21.31,2.95,9.21,0.00,0.00,0.93
1,103.10,88.61,104.00,85.95,20.49,0.00,0.00,3.74,33.26,2.56,0.00,10.91,55.08,39.02,84.93,24.66,0.00,0.00,0.00,0.00,42.39,45.07,15.69,24.77,24.64,0.00,21.31,2.84,8.76,0.00,0.00,0.81
1,101.85,87.34,102.00,85.74,19.59,0.00,0.00,3.45,34.76,5.13,0.00,12.63,55.88,41.46,89.04,24.87,0.00,0.00,0.00,0.00,42.27,47.89,17.65,24.65,24.32,0.00,19.67,2.68,8.75,0.00,0.00,0.81
1,104.56,89.87,104.00,88.41,20.17,0.00,0.00,3.71,34.03,5.13,0.00,12.56,56.06,43.90,91.78,24.17,0.00,0.00,0.00,0.00,40.47,43.66,15.69,23.31,24.59,0.00,18.03,2.84,8.84,0.00,0.00,0.82
1,103.36,91.14,106.00,84.96,19.32,0.00,0.00,3.37,33.33,5.13,0.00,12.12,57.13,43.90,95.89,24.61,0.00,0.00,0.00,0.00,39.12,43.66,13.73,21.13,23.93,0.00,18.03,2.62,8.79,0.00,0.00,0.81
1,102.82,92.41,110.00,81.79,19.51,0.00,0.00,3.43,32.99,5.13,0.00,12.17,57.53,43.90,98.63,24.83,0.00,0.00,0.00,0.00,38.41,40.85,13.73,20.79,24.33,0.00,18.03,2.64,8.47,0.00,0.00,0.79
1,101.91,89.87,106.00,82.55,18.82,0.00,0.00,3.30,32.35,5.13,0.00,11.74,54.23,39.02,90.41,23.40,0.00,0.00,0.00,0.00,38.89,42.25,11.76,21.15,24.37,0.00,19.67,2.66,8.24,0.00,0.00,0.74
1,101.29,89.87,106.00,81.34,19.43,0.00,0.00,3.36,33.30,5.13,0.00,12.65,54.88,43.90,93.15,23.44,0.00,0.00,0.00,0.00,38.51,42.25,9.80,20.12,23.45,0.00,18.03,2.51,8.21,0.00,0.00,0.75
1,98.80,87.34,104.00,77.96,19.48,0.00,0.00,3.34,33.39,5.13,0.00,12.61,55.65,46.34,94.52,23.83,0.00,0.00,0.00,0.00,38.04,40.85,7.84,20.24,22.77,0.00,16.39,2.37,8.05,0.00,0.00,0.72
1,101.28,91.14,102.00,81.13,19.50,0.00,0.00,3.33,33.31,5.13,0.00,12.96,54.53,46.34,90.41,23.50,0.00,0.00,0.00,0.00,37.50,39.44,7.84,19.11,22.43,0.00,14.75,2.28,7.83,0.00,0.00,0.70
1,103.60,93.67,110.00,81.09,19.77,0.00,0.00,3.33,33.22,5.13,0.00,12.98,54.22,46.34,89.04,23.46,0.00,0.00,0.00,0.00,37.29,39.44,7.84,18.75,22.92,0.00,18.03,2.33,7.88,0.00,0.00,0.70
1,103.54,94.94,112.00,80.58,19.98,0.00,0.00,3.41,32.54,5.13,0.00,13.06,52.11,43.90,86.30,21.83,0.00,0.00,0.00,0.00,37.10,38.03,9.80,18.63,23.21,0.00,16.39,2.43,7.78,0.00,0.00,0.69
1,105.02,96.20,108.00,82.91,19.84,0.00,0.00,3.42,32.51,5.13,0.00,12.87,52.30,43.90,82.19,21.74,0.00,0.00,0.00,0.00,36.31,36.62,7.84,18.04,23.52,0.00,16.39,2.47,7.73,0.00,0.00,0.69
1,106.74,100.00,116.00,83.53,19.88,0.00,0.00,3.47,33.56,5.13,0.00,13.15,51.25,43.90,82.19,21.38,0.00,0.00,0.00,0.00,36.74,36.62,7.84,18.10,23.58,0.00,16.39,2.49,7.58,0.00,0.00,0.67
1,105.17,101.27,112.00,79.92,19.80,0.00,0.00,3.40,32.29,5.13,0.00,12.55,50.51,41.46,86.30,20.37,0.00,0.00,0.00,0.00,36.75,36.62,7.84,18.25,23.45,0.00,16.39,2.50,7.46,0.00,0.00,0.65
1,103.53,97.47,108.00,80.26,20.06,0.00,0.00,3.49,32.61,5.13,0.00,12.67,50.91,41.46,86.30,20.41,0.00,0.00,0.00,0.00,37.69,38.03,7.84,18.55,24.27,0.00,16.39,2.66,7.34,0.00,0.00,0.62
1,103.20,96.20,106.00,81.15,19.80,0.00,0.00,3.40,32.34,5.13,0.00,12.58,48.83,39.02,84.93,19.18,0.00,0.00,0.00,0.00,37.58,38.03,9.80,19.15,24.25,0.00,16.39,2.66,7.46,0.00,0.00,0.63
1,104.36,98.73,108.00,81.06,18.60,0.00,0.00,2.95,32.67,5.13,0.00,12.85,46.40,31.71,79.45,18.50,0.00,0.00,0.00,0.00,38.03,39.44,11.76,19.10,23.82,0.00,14.75,2.61,7.41,0.00,0.00,0.62
1,104.56,98.73,108.00,81.90,18.04,0.00,0.00,2.82,32.80,5.13,0.00,13.09,46.37,31.71,83.56,17.79,0.00,0.00,0.00,0.00,36.76,38.03,9.80,17.42,23.43,0.00,14.75,2.53,7.39,0.00,0.00,0.63
1,104.33,97.47,108.00,82.48,18.13,0.00,0.00,2.79,31.71,2.56,0.00,12.32,46.18,29.27,83.56,16.73,0.00,0.00,0.00,0.00,37.18,39.44,9.80,18.05,23.18,0.00,11.48,2.45,7.15,0.00,0.00,0.56
1,105.22,98.73,110.00,83.46,17.68,0.00,0.00,2.60,32.16,2.56,0.00,12.36,45.90,29.27,83.56,17.18,0.00,0.00,0.00,0.00,36.66,39.44,9.80,17.51,21.86,0.00,8.20,2.25,7.03,0.00,0.00,0.56
1,106.41,98.73,112.00,85.76,17.99,0.00,0.00,2.70,32.37,2.56,0.00,12.30,44.49,24.39,83.56,16.49,0.00,0.00,0.00,0.00,36.47,39.44,9.80,17.59,21.82,0.00,8.20,2.25,6.39,0.00,0.00,0.43
1,106.76,100.00,112.00,85.60,17.78,0.00,0.00,2.68,32.58,2.56,0.00,12.44,46.04,24.39,89.04,16.65,0.00,0.00,0.00,0.00,37.19,40.85,11.76,18.13,22.41,0.00,9.84,2.37,6.45,0.00,0.00,0.43
1,105.99,101.27,112.00,83.39,18.09,0.00,0.00,2.76,30.24,0.00,0.00,10.84,45.70,21.95,89.04,16.77,0.00,0.00,0.00,0.00,36.66,39.44,11.76,17.93,21.95,0.00,9.84,2.33,6.29,0.00,0.00,0.41
1,103.58,101.27,108.00,80.07,17.84,0.00,0.00,2.61,29.74,0.00,0.00,10.39,43.84,17.07,86.30,15.83,0.00,0.00,0.00,0.00,36.55,39.44,9.80,17.55,22.03,0.00,9.84,2.20,6.26,0.00,0.00,0.39
1,103.87,100.00,104.00,80.95,17.93,0.00,0.00,2.62,29.85,0.00,0.00,10.26,42.72,17.07,82.19,15.11,0.00,0.00,0.00,0.00,36.55,38.03,9.80,17.62,21.41,0.00,8.20,2.16,5.89,0.00,0.00,0.36
1,105.33,102.53,108.00,82.06,17.78,0.00,0.00,2.62,30.30,0.00,0.00,10.53,42.42,14.63,80.82,14.92,0.00,0.00,0.00,0.00,35.43,35.21,9.80,17.00,21.68,0.00,9.84,2.20,5.75,0.00,0.00,0.35
1,103.87,101.27,106.00,80.63,17.81,0.00,0.00,2.61,32.05,2.56,0.00,11.50,41.26,14.63,80.82,14.17,0.00,0.00,0.00,0.00,34.30,32.39,9.80,16.34,21.36,0.00,8.20,2.16,6.01,0.00,0.00,0.37
1,106.82,105.06,106.00,81.36,17.23,0.00,0.00,2.59,30.28,2.56,0.00,10.51,40.26,9.76,78.08,13.76,0.00,0.00,0.00,0.00,34.27,33.80,9.80,16.42,21.92,0.00,9.84,2.27,5.64,0.00,0.00,0.34
1,106.53,105.06,106.00,82.20,17.11,0.00,0.00,2.52,30.46,2.56,0.00,10.33,41.99,9.76,80.82,14.54,0.00,0.00,0.00,0.00,34.45,33.80,9.80,16.48,22.10,0.00,9.84,2.38,5.99,0.00,0.00,0.41
1,105.13,102.53,106.00,80.94,16.71,0.00,0.00,2.38,30.83,2.56,0.00,10.23,40.34,7.32,76.71,13.75,0.00,0.00,0.00,0.00,33.76,33.80,9.80,16.35,21.98,0.00,9.84,2.32,6.02,0.00,0.00,0.40
1,102.18,101.27,98.00,78.98,17.46,0.00,0.00,2.89,31.48,2.56,0.00,10.41,39.98,7.32,73.97,13.42,0.00,0.00,0.00,0.00,33.67,32.39,9.80,16.23,22.25,0.00,6.56,2.54,6.04,0.00,0.00,0.40
1,104.00,98.73,98.00,83.69,17.43,0.00,0.00,2.93,31.72,2.56,0.00,10.21,40.49,7.32,78.08,13.25,0.00,0.00,0.00,0.00,32.62,30.99,7.84,15.34,21.89,0.00,6.56,2.47,5.85,0.00,0.00,0.39
1,102.88,96.20,100.00,82.47,17.33,0.00,0.00,2.81,31.93,2.56,0.00,10.62,41.00,7.32,82.19,13.32,0.00,0.00,0.00,0.00,32.58,30.99,7.84,15.43,21.97,0.00,8.20,2.48,5.80,0.00,0.00,0.38
1,100.75,89.87,94.00,81.08,17.36,0.00,0.00,2.82,31.30,2.56,0.00,10.22,41.42,7.32,83.56,13.50,0.00,0.00,0.00,0.00,32.41,30.99,7.84,15.64,22.24,0.00,8.20,2.48,5.97,0.00,0.00,0.39
1,103.23,89.87,100.00,84.57,17.18,0.00,0.00,2.79,32.11,2.56,0.00,10.57,41.75,7.32,79.45,13.98,0.00,0.00,0.00,0.00,32.96,30.99,7.84,15.73,22.07,0.00,8.20,2.45,6.06,0.00,0.00,0.43
1,104.78,91.14,102.00,85.24,17.41,0.00,0.00,2.85,32.83,2.56,0.00,10.95,41.73,7.32,79.45,14.13,0.00,0.00,0.00,0.00,31.78,29.58,7.84,15.23,22.00,0.00,8.20,2.46,6.08,0.00,0.00,0.43
1,105.76,92.41,100.00,86.58,17.85,0.00,0.00,2.94,32.78,2.56,0.00,10.95,41.96,7.32,79.45,13.96,0.00,0.00,0.00,0.00,30.51,28.17,5.88,13.78,22.20,0.00,8.20,2.45,5.81,0.00,0.00,0.41
1,107.81,92.41,100.00,91.32,17.91,0.00,0.00,2.96,32.35,2.56,0.00,10.75,41.68,7.32,79.45,14.53,0.00,0.00,0.00,0.00,30.77,28.17,3.92,13.67,21.85,0.00,8.20,2.43,5.82,0.00,0.00,0.40
1,106.23,88.61,98.00,92.73,18.17,0.00,0.00,2.94,32.74,2.56,0.00,11.06,40.38,7.32,71.23,14.31,0.00,0.00,0.00,0.00,30.32,28.17,3.92,13.60,21.59,0.00,8.20,2.41,5.93,0.00,0.00,0.40
1,108.39,92.41,102.00,92.13,18.00,0.00,0.00,2.91,32.26,2.56,0.00,11.12,40.99,7.32,71.23,14.48,0.00,0.00,0.00,0.00,31.15,29.58,3.92,14.26,21.73,0.00,8.20,2.43,5.88,0.00,0.00,0.40
1,109.43,92.41,102.00,94.80,17.81,0.00,0.00,2.91,32.26,2.56,0.00,10.92,41.15,7.32,69.86,14.51,0.00,0.00,0.00,0.00,30.85,28.17,3.92,13.57,21.14,0.00,8.20,2.34,5.98,0.00,0.00,0.41
1,109.50,92.41,102.00,94.14,17.29,0.00,0.00,2.79,31.28,2.56,0.00,10.37,41.14,9.76,65.75,15.38,0.00,0.00,0.00,0.00,31.46,26.76,3.92,13.74,21.22,0.00,9.84,2.35,5.92,0.00,0.00,0.40
1,109.68,91.14,100.00,95.57,17.24,0.00,0.00,2.77,31.28,2.56,0.00,10.29,40.86,9.76,65.75,15.34,0.00,0.00,0.00,0.00,32.55,29.58,3.92,14.20,20.94,0.00,8.20,2.28,6.03,0.00,0.00,0.42
1,110.83,92.41,104.00,96.69,17.09,0.00,0.00,2.75,31.62,2.56,0.00,10.34,38.72,7.32,63.01,14.20,0.00,0.00,0.00,0.00,32.84,30.99,1.96,14.73,20.87,0.00,8.20,2.28,5.85,0.00,0.00,0.41
1,112.82,92.41,106.00,99.99,17.01,0.00,0.00,2.75,32.36,2.56,0.00,10.69,37.60,4.88,61.64,13.44,0.00,0.00,0.00,0.00,32.92,29.58,0.00,15.01,21.01,0.00,9.84,2.30,5.86,0.00,0.00,0.41
1,113.47,92.41,110.00,99.10,16.81,0.00,0.00,2.73,32.09,2.56,0.00,10.74,38.39,7.32,61.64,13.63,0.00,0.00,0.00,0.00,32.12,26.76,0.00,14.01,20.77,0.00,9.84,2.30,5.79,0.00,0.00,0.40
1,111.22,88.61,102.00,98.48,16.80,0.00,0.00,2.67,32.08,2.56,0.00,10.86,37.47,7.32,63.01,13.35,0.00,0.00,0.00,0.00,31.72,26.76,0.00,13.78,20.34,0.00,8.20,2.18,5.98,0.00,0.00,0.42
1,112.40,92.41,104.00,98.95,17.07,0.00,0.00,2.73,30.90,0.00,0.00,9.82,38.14,7.32,65.75,13.72,0.00,0.00,0.00,0.00,32.09,28.17,0.00,13.98,20.53,0.00,8.20,2.18,6.03,0.00,0.00,0.42
1,112.93,93.67,112.00,99.04,16.97,0.00,0.00,2.65,30.72,0.00,0.00,9.74,36.58,7.32,63.01,13.01,0.00,0.00,0.00,0.00,32.19,28.17,0.00,14.13,20.12,0.00,6.56,2.15,6.06,0.00,0.00,0.43
1,110.23,89.87,108.00,96.19,16.73,0.00,0.00,2.52,30.63,0.00,0.00,9.99,35.81,7.32,60.27,13.00,0.00,0.00,0.00,0.00,32.06,28.17,0.00,13.74,20.06,0.00,8.20,2.01,5.66,0.00,0.00,0.37
1,108.97,91.14,110.00,91.92,16.97,0.00,0.00,2.59,31.19,2.56,0.00,10.61,37.24,7.32,64.38,13.57,0.00,0.00,0.00,0.00,32.21,26.76,0.00,14.00,20.71,0.00,9.84,2.12,5.58,0.00,0.00,0.36
1,109.56,91.14,112.00,93.39,16.32,0.00,0.00,2.26,30.83,2.56,0.00,10.32,37.04,7.32,67.12,13.57,0.00,0.00,0.00,0.00,33.01,26.76,0.00,14.34,19.53,0.00,9.84,1.89,5.39,0.00,0.00,0.35
1,106.79,89.87,106.00,89.52,16.57,0.00,0.00,2.17,31.18,2.56,0.00,10.56,35.95,7.32,63.01,13.32,0.00,0.00,0.00,0.00,32.49,25.35,0.00,14.01,19.50,0.00,9.84,1.83,5.39,0.00,0.00,0.35
1,104.86,88.61,104.00,88.32,16.51,0.00,0.00,2.13,30.01,2.56,0.00,9.76,35.57,7.32,60.27,13.23,0.00,0.00,0.00,0.00,33.02,25.35,0.00,14.39,18.93,0.00,8.20,1.71,5.44,0.00,0.00,0.35
1,107.20,94.94,108.00,90.53,16.12,0.00,0.00,2.06,29.05,2.56,0.00,9.07,35.64,7.32,57.53,13.68,0.00,0.00,0.00,0.00,33.42,23.94,0.00,14.79,18.47,0.00,8.20,1.65,5.41,0.00,0.00,0.36
1,104.99,93.67,100.00,89.64,15.76,0.00,0.00,2.00,29.08,2.56,0.00,9.04,34.26,7.32,54.79,12.87,0.00,0.00,0.00,0.00,33.05,23.94,0.00,14.73,18.35,0.00,8.20,1.65,5.17,0.00,0.00,0.31
1,101.48,91.14,92.00,85.54,15.44,0.00,0.00,1.88,28.57,2.56,0.00,8.70,34.64,7.32,54.79,13.30,0.00,0.00,0.00,0.00,34.03,23.94,0.00,15.14,18.03,0.00,8.20,1.52,5.14,0.00,0.00,0.30
1,100.38,91.14,92.00,83.72,15.40,0.00,0.00,1.85,28.02,2.56,0.00,8.40,33.88,7.32,53.42,12.87,0.00,0.00,0.00,0.00,34.09,25.35,0.00,15.30,18.70,0.00,9.84,1.59,5.38,0.00,0.00,0.32
1,98.98,92.41,92.00,79.23,15.60,0.00,0.00,1.95,28.16,2.56,0.00,8.07,33.84,7.32,54.79,12.38,0.00,0.00,0.00,0.00,33.84,22.54,0.00,15.70,19.50,0.00,13.11,1.79,5.22,0.00,0.00,0.31
1,100.02,96.20,96.00,79.17,15.64,0.00,0.00,2.05,26.94,2.56,0.00,7.58,33.60,7.32,57.53,12.10,0.00,0.00,0.00,0.00,33.94,22.54,0.00,15.68,19.71,0.00,13.11,1.80,5.06,0.00,0.00,0.29
1,95.71,93.67,90.00,72.71,15.77,0.00,0.00,2.11,26.22,2.56,0.00,6.97,33.30,7.32,57.53,11.72,0.00,0.00,0.00,0.00,33.94,21.13,0.00,15.41,19.59,0.00,13.11,1.80,4.89,0.00,0.00,0.28
1,97.28,94.94,96.00,73.39,15.39,0.00,0.00,2.04,26.16,2.56,0.00,7.03,32.61,7.32,60.27,10.98,0.00,0.00,0.00,0.00,34.14,21.13,0.00,15.33,19.63,0.00,14.75,1.83,4.82,0.00,0.00,0.28
1,97.95,96.20,94.00,74.55,15.52,0.00,0.00,2.10,26.77,2.56,0.00,7.24,30.41,4.88,57.53,9.34,0.00,0.00,0.00,0.00,34.97,23.94,1.96,16.71,19.05,0.00,13.11,1.77,5.06,0.00,0.00,0.30
1,94.90,94.94,88.00,72.98,15.35,0.00,0.00,2.08,25.97,2.56,0.00,6.78,31.38,4.88,56.16,10.22,0.00,0.00,0.00,0.00,34.94,23.94,1.96,16.93,19.09,0.00,13.11,1.73,5.08,0.00,0.00,0.30
1,95.54,93.67,88.00,73.22,15.40,0.00,0.00,2.07,26.07,2.56,0.00,6.85,30.57,4.88,53.42,10.00,0.00,0.00,0.00,0.00,33.88,21.13,1.96,15.88,18.99,0.00,13.11,1.72,5.36,0.00,0.00,0.33
1,93.10,89.87,86.00,71.38,15.89,0.00,0.00,2.20,26.11,2.56,0.00,6.60,31.04,4.88,54.79,10.09,0.00,0.00,0.00,0.00,34.35,25.35,1.96,16.19,19.40,0.00,11.48,1.75,5.60,0.00,0.00,0.36
1,95.90,92.41,88.00,74.99,16.50,0.00,0.00,2.34,25.77,2.56,0.00,6.38,31.62,4.88,58.90,10.27,0.00,0.00,0.00,0.00,34.80,26.76,1.96,16.16,19.35,0.00,11.48,1.74,5.85,0.00,0.00,0.38
1,99.22,97.47,98.00,77.37,16.61,0.00,0.00,2.39,25.37,2.56,0.00,6.10,31.10,2.44,57.53,9.77,0.00,0.00,0.00,0.00,34.76,26.76,1.96,16.40,19.24,0.00,11.48,1.72,5.92,0.00,0.00,0.38
1,100.00,94.94,96.00,77.76,16.64,0.00,0.00,2.39,24.90,2.56,0.00,5.86,30.23,2.44,52.05,9.64,0.00,0.00,0.00,0.00,35.50,26.76,1.96,16.62,19.20,0.00,13.11,1.79,5.77,0.00,0.00,0.37
1,97.61,89.87,86.00,80.46,17.09,0.00,0.00,2.70,26.03,2.56,0.00,6.53,30.81,2.44,54.79,9.60,0.00,0.00,0.00,0.00,35.96,26.76,1.96,16.46,19.93,0.00,14.75,1.95,5.72,0.00,0.00,0.36
1,96.67,91.14,84.00,78.85,17.22,0.00,0.00,2.75,25.23,2.56,0.00,6.14,30.31,2.44,53.42,9.40,0.00,0.00,0.00,0.00,34.76,23.94,1.96,16.15,19.46,0.00,13.11,1.89,5.97,0.00,0.00,0.38
1,96.03,88.61,82.00,79.36,17.23,0.00,0.00,2.74,24.39,0.00,0.00,5.28,29.54,2.44,53.42,8.63,0.00,0.00,0.00,0.00,33.66,22.54,1.96,15.43,18.56,0.00,9.84,1.75,6.02,0.00,0.00,0.38
1,98.98,89.87,86.00,82.18,17.03,0.00,0.00,2.72,23.73,0.00,0.00,4.96,29.32,2.44,52.05,8.67,0.00,0.00,0.00,0.00,33.81,22.54,1.96,15.59,18.46,0.00,9.84,1.73,5.85,0.00,0.00,0.37
1,99.44,92.41,90.00,82.85,16.51,0.00,0.00,2.63,23.77,0.00,0.00,4.96,31.16,2.44,56.16,9.64,0.00,0.00,0.00,0.00,33.41,22.54,1.96,15.53,18.46,0.00,9.84,1.72,6.03,0.00,0.00,0.38
1,101.03,93.67,92.00,82.94,16.29,0.00,0.00,2.59,23.06,0.00,0.00,4.75,31.59,2.44,56.16,9.73,0.00,0.00,0.00,0.00,33.39,22.54,1.96,15.43,18.95,0.00,11.48,1.90,5.93,0.00,0.00,0.37
1,100.12,89.87,88.00,82.75,16.56,0.00,0.00,2.61,23.33,0.00,0.00,4.93,31.04,0.00,58.90,8.89,0.00,0.00,0.00,0.00,32.63,22.54,1.96,14.73,19.21,0.00,11.48,1.94,5.92,0.00,0.00,0.37
1,101.85,93.67,96.00,82.48,16.63,0.00,0.00,2.69,23.17,0.00,0.00,4.78,30.73,0.00,57.53,8.84,0.00,0.00,0.00,0.00,31.58,19.72,1.96,13.68,19.48,0.00,11.48,1.98,6.01,0.00,0.00,0.37
1,102.51,94.94,98.00,83.51,17.33,0.00,0.00,2.84,22.48,0.00,0.00,4.65,32.00,2.44,57.53,9.88,0.00,0.00,0.00,0.00,32.17,19.72,1.96,13.95,20.15,0.00,13.11,2.14,6.17,0.00,0.00,0.40
1,104.21,96.20,100.00,85.07,17.65,0.00,0.00,2.91,23.00,0.00,0.00,4.61,32.12,2.44,58.90,10.03,0.00,0.00,0.00,0.00,33.44,21.13,1.96,15.63,20.35,0.00,14.75,2.13,6.15,0.00,0.00,0.39
1,103.82,94.94,100.00,85.60,17.40,0.00,0.00,2.81,22.91,0.00,0.00,5.17,30.89,2.44,56.16,9.52,0.00,0.00,0.00,0.00,32.85,19.72,1.96,15.03,19.79,0.00,9.84,2.08,6.11,0.00,0.00,0.38
1,99.91,89.87,90.00,83.31,17.93,0.00,0.00,2.91,23.76,0.00,0.00,5.42,32.42,4.88,56.16,10.31,0.00,0.00,0.00,0.00,33.57,22.54,1.96,15.61,20.96,0.00,13.11,2.36,5.91,0.00,0.00,0.37
1,101.97,93.67,96.00,83.55,17.76,0.00,0.00,2.81,24.18,0.00,0.00,5.34,33.80,7.32,57.53,11.47,0.00,0.00,0.00,0.00,33.83,25.35,1.96,15.87,21.47,0.00,14.75,2.42,6.14,0.00,0.00,0.38
1,98.45,91.14,88.00,80.92,17.92,0.00,0.00,2.88,25.07,0.00,0.00,5.65,33.29,7.32,54.79,11.41,0.00,0.00,0.00,0.00,33.36,25.35,1.96,15.74,21.47,0.00,13.11,2.39,6.28,0.00,0.00,0.40
1,98.68,93.67,94.00,79.41,18.08,0.00,0.00,2.90,25.84,0.00,0.00,6.01,33.58,7.32,54.79,11.65,0.00,0.00,0.00,0.00,33.32,25.35,1.96,15.63,21.77,0.00,13.11,2.41,6.04,0.00,0.00,0.37
1,102.57,94.94,100.00,82.39,18.10,0.00,0.00,2.87,25.70,0.00,0.00,5.87,33.70,7.32,56.16,11.37,0.00,0.00,0.00,0.00,32.34,21.13,0.00,13.79,21.61,0.00,13.11,2.40,5.98,0.00,0.00,0.37
1,100.56,94.94,100.00,82.55,18.29,0.00,0.00,2.90,26.43,0.00,0.00,6.16,32.39,7.32,54.79,10.63,0.00,0.00,0.00,0.00,32.62,23.94,0.00,14.93,21.85,0.00,13.11,2.45,6.00,0.00,0.00,0.37
1,98.84,97.47,100.00,78.19,17.93,0.00,0.00,2.83,26.98,0.00,0.00,6.23,33.10,7.32,56.16,11.02,0.00,0.00,0.00,0.00,32.78,21.13,0.00,14.71,21.24,0.00,13.11,2.36,5.76,0.00,0.00,0.33
1,97.63,97.47,98.00,74.06,17.12,0.00,0.00,2.62,27.29,0.00,0.00,6.68,33.35,7.32,56.16,10.78,0.00,0.00,0.00,0.00,32.97,21.13,0.00,14.86,21.30,0.00,13.11,2.42,5.86,0.00,0.00,0.35
1,95.98,93.67,94.00,74.51,16.76,0.00,0.00,2.58,28.85,0.00,0.00,7.59,32.08,7.32,53.42,10.38,0.00,0.00,0.00,0.00,32.41,19.72,0.00,14.27,21.24,0.00,13.11,2.43,5.61,0.00,0.00,0.33
1,94.80,92.41,94.00,73.07,16.17,0.00,0.00,2.45,29.99,0.00,0.00,7.97,32.12,7.32,53.42,10.28,0.00,0.00,0.00,0.00,32.30,18.31,0.00,14.27,21.35,0.00,11.48,2.43,5.70,0.00,0.00,0.35
1,93.68,92.41,94.00,69.00,16.40,0.00,0.00,2.39,29.37,0.00,0.00,7.37,34.45,12.20,57.53,11.85,0.00,0.00,0.00,0.00,32.71,19.72,0.00,15.45,21.72,0.00,9.84,2.45,5.93,0.00,0.00,0.38
1,93.76,92.41,94.00,70.47,16.25,0.00,0.00,2.33,29.33,0.00,0.00,7.33,34.00,12.20,57.53,11.62,0.00,0.00,0.00,0.00,33.24,21.13,0.00,15.45,21.59,0.00,11.48,2.43,5.92,0.00,0.00,0.38
1,94.40,91.14,92.00,72.74,15.98,0.00,0.00,2.28,29.98,0.00,0.00,7.62,35.82,14.63,60.27,12.51,0.00,0.00,0.00,0.00,35.02,25.35,0.00,16.71,21.31,0.00,11.48,2.36,5.88,0.00,0.00,0.38
1,93.30,91.14,90.00,70.67,16.58,0.00,0.00,2.43,30.77,0.00,0.00,7.99,34.68,14.63,56.16,12.30,0.00,0.00,0.00,0.00,34.28,25.35,0.00,16.28,21.63,0.00,13.11,2.41,5.94,0.00,0.00,0.39
1,93.17,89.87,86.00,70.43,16.88,0.00,0.00,2.42,30.70,0.00,0.00,8.14,33.44,14.63,53.42,11.60,0.00,0.00,0.00,0.00,34.55,25.35,0.00,16.32,21.89,0.00,13.11,2.42,5.89,0.00,0.00,0.39
1,93.70,91.14,86.00,72.01,16.94,0.00,0.00,2.48,31.02,0.00,0.00,8.09,33.80,14.63,56.16,11.57,0.00,0.00,0.00,0.00,34.90,25.35,0.00,16.34,21.19,0.00,11.48,2.24,5.81,0.00,0.00,0.38
1,95.18,92.41,88.00,73.86,17.19,0.00,0.00,2.56,31.22,0.00,0.00,8.32,33.22,14.63,54.79,11.90,0.00,0.00,0.00,0.00,35.21,25.35,0.00,16.45,21.21,0.00,11.48,2.21,5.93,0.00,0.00,0.40
1,95.40,89.87,84.00,75.21,16.96,0.00,0.00,2.47,31.54,0.00,0.00,8.31,34.74,19.51,56.16,12.70,0.00,0.00,0.00,0.00,35.69,25.35,0.00,16.67,21.03,0.00,11.48,2.20,5.97,0.00,0.00,0.40
1,96.73,87.34,92.00,78.16,16.82,0.00,0.00,2.46,32.36,0.00,0.00,8.52,33.23,17.07,54.79,12.17,0.00,0.00,0.00,0.00,35.66,25.35,0.00,16.68,20.36,0.00,9.84,2.07,5.96,0.00,0.00,0.41
1,97.27,87.34,92.00,77.53,16.62,0.00,0.00,2.45,32.24,0.00,0.00,8.49,33.60,19.51,56.16,11.25,0.00,0.00,0.00,0.00,33.42,22.54,0.00,14.35,20.37,0.00,8.20,2.05,5.86,0.00,0.00,0.39
1,96.01,88.61,90.00,74.12,16.71,0.00,0.00,2.47,31.67,0.00,0.00,7.92,34.29,19.51,58.90,11.92,0.00,0.00,0.00,0.00,33.06,22.54,0.00,14.04,20.49,0.00,8.20,2.07,5.72,0.00,0.00,0.38
1,98.18,88.61,96.00,75.09,15.95,0.00,0.00,2.32,31.74,0.00,0.00,7.81,32.61,17.07,57.53,11.03,0.00,0.00,0.00,0.00,31.81,21.13,0.00,13.41,19.58,0.00,4.92,1.80,5.75,0.00,0.00,0.38
1,99.50,89.87,100.00,76.06,15.71,0.00,0.00,2.30,31.82,0.00,0.00,8.00,30.62,14.63,54.79,9.69,0.00,0.00,0.00,0.00,31.16,18.31,0.00,13.02,19.22,0.00,3.28,1.78,5.66,0.00,0.00,0.36
1,102.06,91.14,104.00,78.70,16.37,0.00,0.00,2.43,32.06,0.00,0.00,8.04,31.34,14.63,56.16,9.81,0.00,0.00,0.00,0.00,31.61,19.72,1.96,13.72,19.67,0.00,4.92,1.84,5.55,0.00,0.00,0.35
1,103.26,89.87,98.00,82.00,16.14,0.00,0.00,2.41,31.39,0.00,0.00,7.73,31.81,14.63,57.53,9.80,0.00,0.00,0.00,0.00,33.47,21.13,3.92,15.23,20.35,0.00,6.56,1.97,5.55,0.00,0.00,0.35
1,102.00,84.81,94.00,82.16,16.32,0.00,0.00,2.48,32.21,0.00,0.00,7.98,31.10,14.63,54.79,9.78,0.00,0.00,0.00,0.00,33.67,22.54,3.92,15.72,20.61,0.00,6.56,1.98,5.68,0.00,0.00,0.36
1,99.13,81.01,90.00,80.83,15.87,0.00,0.00,2.48,32.71,0.00,0.00,8.16,30.50,14.63,53.42,9.50,0.00,0.00,0.00,0.00,31.91,18.31,3.92,14.11,20.47,0.00,6.56,2.06,5.33,0.00,0.00,0.32
1,100.53,79.75,88.00,83.21,16.30,0.00,0.00,2.59,32.57,0.00,0.00,8.35,30.92,14.63,54.79,9.52,0.00,0.00,0.00,0.00,32.86,19.72,3.92,15.70,20.47,0.00,6.56,2.10,5.36,0.00,0.00,0.32
1,98.90,77.22,84.00,82.54,16.56,0.00,0.00,2.64,32.42,0.00,0.00,8.05,29.94,14.63,50.68,9.45,0.00,0.00,0.00,0.00,31.74,18.31,3.92,15.19,20.49,0.00,6.56,2.07,5.02,0.00,0.00,0.29
1,96.78,75.95,82.00,80.26,16.98,0.00,0.00,2.73,31.54,0.00,0.00,7.44,30.78,14.63,52.05,9.77,0.00,0.00,0.00,0.00,32.27,19.72,3.92,15.42,21.59,0.00,8.20,2.20,5.25,0.00,0.00,0.30
1,95.90,77.22,78.00,79.90,17.36,0.00,0.00,2.81,31.24,0.00,0.00,7.28,30.43,14.63,52.05,9.61,0.00,0.00,0.00,0.00,31.56,19.72,3.92,15.12,21.48,0.00,8.20,2.18,5.21,0.00,0.00,0.29
1,94.90,75.95,78.00,78.41,16.75,0.00,0.00,2.66,31.60,0.00,0.00,7.35,28.60,9.76,50.68,8.08,0.00,0.00,0.00,0.00,31.24,18.31,3.92,14.64,20.74,0.00,8.20,2.04,4.84,0.00,0.00,0.25
1,96.59,77.22,78.00,81.89,16.21,0.00,0.00,2.58,31.11,0.00,0.00,7.25,28.88,9.76,52.05,8.18,0.00,0.00,0.00,0.00,30.34,16.90,3.92,13.96,20.81,0.00,6.56,2.09,4.96,0.00,0.00,0.27
1,94.22,75.95,74.00,78.50,16.33,0.00,0.00,2.58,31.74,0.00,0.00,7.47,29.11,9.76,50.68,9.26,0.00,0.00,0.00,0.00,30.55,15.49,3.92,13.83,20.94,0.00,6.56,2.11,4.99,0.00,0.00,0.26
1,94.73,77.22,74.00,80.22,15.47,0.00,0.00,2.40,32.25,0.00,0.00,7.41,29.95,9.76,54.79,9.43,0.00,0.00,0.00,0.00,31.53,15.49,5.88,14.94,20.83,0.00,4.92,2.09,5.09,0.00,0.00,0.27
1,93.71,77.22,74.00,79.40,15.38,0.00,0.00,2.43,32.43,0.00,0.00,7.47,31.82,9.76,60.27,10.12,0.00,0.00,0.00,0.00,33.09,19.72,5.88,16.63,21.03,0.00,6.56,2.14,5.43,0.00,0.00,0.29
1,94.52,77.22,76.00,78.81,15.06,0.00,0.00,2.34,33.60,0.00,0.00,7.71,31.78,9.76,58.90,10.02,0.00,0.00,0.00,0.00,33.01,19.72,5.88,16.82,21.09,0.00,6.56,2.13,5.47,0.00,0.00,0.29
1,93.81,77.22,76.00,78.22,15.36,0.00,0.00,2.34,33.50,0.00,0.00,7.56,30.39,9.76,54.79,9.24,0.00,0.00,0.00,0.00,32.92,19.72,5.88,16.90,21.60,0.00,8.20,2.22,5.40,0.00,0.00,0.29
1,89.10,75.95,70.00,72.89,15.30,0.00,0.00,2.49,34.06,0.00,0.00,7.94,28.79,4.88,50.68,8.40,0.00,0.00,0.00,0.00,33.01,19.72,5.88,17.17,21.85,0.00,9.84,2.37,5.34,0.00,0.00,0.27
1,85.49,74.68,62.00,68.57,16.78,0.00,0.00,3.25,34.34,0.00,0.00,7.92,28.31,4.88,52.05,8.03,0.00,0.00,0.00,0.00,34.72,23.94,5.88,21.79,27.04,6.25,13.11,6.68,5.29,0.00,0.00,0.27
1,84.49,75.95,62.00,67.18,19.11,4.44,4.65,6.72,34.46,0.00,0.00,8.01,27.89,4.88,50.68,7.88,0.00,0.00,0.00,0.00,36.98,29.58,5.88,24.36,31.54,12.50,19.67,9.43,5.16,0.00,0.00,0.27
1,81.56,72.15,58.00,64.62,21.20,8.89,6.98,7.99,33.96,0.00,0.00,7.92,26.02,2.44,46.58,6.83,0.00,0.00,0.00,0.00,38.59,32.39,5.88,25.32,34.17,21.87,24.59,11.18,5.24,0.00,0.00,0.27
1,80.22,73.42,54.00,63.21,23.78,11.11,9.30,9.92,34.25,0.00,0.00,8.05,25.87,2.44,45.21,6.83,0.00,0.00,0.00,0.00,39.78,36.62,5.88,26.58,36.86,25.00,29.51,12.54,5.55,0.00,0.00,0.32
1,76.40,68.35,46.00,62.29,27.76,17.78,13.95,11.91,33.95,0.00,0.00,7.93,26.52,2.44,46.58,7.00,0.00,0.00,0.00,0.00,42.84,40.85,9.80,31.18,41.81,31.25,34.43,15.80,5.77,0.00,0.00,0.34
1,73.74,65.82,40.00,60.40,29.52,20.00,16.28,14.02,33.37,0.00,0.00,7.73,25.94,2.44,45.21,6.91,0.00,0.00,0.00,0.00,40.75,36.62,7.84,29.16,42.48,34.38,34.43,16.66,5.81,0.00,0.00,0.35
1,68.33,62.03,36.00,52.77,30.50,22.22,18.60,14.86,33.76,0.00,0.00,7.62,25.86,2.44,45.21,6.94,0.00,0.00,0.00,0.00,39.48,35.21,5.88,28.69,43.21,34.38,36.07,16.90,5.72,0.00,0.00,0.35
1,65.88,62.03,32.00,50.13,30.81,22.22,18.60,14.92,31.87,0.00,0.00,6.99,25.76,2.44,45.21,6.87,0.00,0.00,0.00,0.00,39.30,35.21,5.88,28.61,43.31,34.38,36.07,16.88,5.59,0.00,0.00,0.35
1,64.09,60.76,30.00,45.31,31.71,22.22,18.60,15.17,31.78,0.00,0.00,6.73,26.55,2.44,46.58,7.10,0.00,0.00,0.00,0.00,38.87,33.80,5.88,27.89,44.35,34.38,39.34,17.05,5.48,0.00,0.00,0.33
1,61.91,59.49,28.00,42.72,32.16,22.22,18.60,15.38,31.00,0.00,0.00,6.41,25.06,2.44,39.73,6.66,0.00,0.00,0.00,0.00,38.35,33.80,5.88,27.19,44.60,34.38,39.34,16.97,5.57,0.00,0.00,0.33
1,61.87,60.76,30.00,41.85,33.12,22.22,18.60,15.73,30.55,0.00,0.00,6.42,24.48,2.44,41.10,6.31,0.00,0.00,0.00,0.00,37.24,30.99,5.88,25.76,44.62,34.38,40.98,17.14,5.66,0.00,0.00,0.34
1,59.33,58.23,28.00,39.61,33.36,22.22,18.60,15.80,30.55,0.00,0.00,6.32,24.68,2.44,41.10,6.32,0.00,0.00,0.00,0.00,37.07,30.99,5.88,25.83,44.68,34.38,40.98,17.19,5.63,0.00,0.00,0.34
1,59.48,56.96,28.00,39.39,33.51,22.22,18.60,16.02,30.59,0.00,0.00,6.56,23.68,2.44,38.36,5.94,0.00,0.00,0.00,0.00,36.94,29.58,5.88,26.02,45.83,34.38,40.98,17.85,5.41,0.00,0.00,0.32
1,57.47,53.16,26.00,37.73,33.66,22.22,18.60,16.12,30.94,0.00,0.00,6.78,23.53,2.44,38.36,5.97,0.00,0.00,0.00,0.00,36.33,29.58,5.88,25.77,45.88,34.38,40.98,17.92,5.37,0.00,0.00,0.32
1,54.09,49.37,24.00,32.28,33.77,22.22,18.60,16.07,30.30,0.00,0.00,6.67,22.60,2.44,34.25,5.79,0.00,0.00,0.00,0.00,35.37,28.17,5.88,25.12,45.31,34.38,40.98,17.82,5.14,0.00,0.00,0.30
1,52.80,49.37,24.00,31.14,33.64,22.22,18.60,16.01,30.18,0.00,0.00,6.55,20.69,0.00,30.14,4.04,0.00,0.00,0.00,0.00,34.76,28.17,5.88,24.67,45.82,34.38,42.62,17.88,5.12,0.00,0.00,0.30
1,49.66,45.57,24.00,26.91,34.77,22.22,18.60,16.40,28.60,0.00,0.00,6.16,19.53,0.00,26.03,3.58,0.00,0.00,0.00,0.00,32.93,25.35,3.92,23.60,45.43,34.38,42.62,17.86,4.85,0.00,0.00,0.27
1,46.26,40.51,20.00,23.31,34.39,22.22,18.60,16.33,27.70,0.00,0.00,5.83,17.90,0.00,21.92,2.95,0.00,0.00,0.00,0.00,30.31,22.54,3.92,20.60,45.04,34.38,40.98,17.81,4.62,0.00,0.00,0.26
1,41.65,36.71,14.00,19.11,34.58,22.22,18.60,16.31,26.10,0.00,0.00,5.46,16.81,0.00,19.18,2.66,0.00,0.00,0.00,0.00,29.73,23.94,3.92,20.53,44.83,34.38,40.98,17.78,4.42,0.00,0.00,0.24
1,40.20,35.44,14.00,17.90,35.39,22.22,18.60,16.63,25.71,0.00,0.00,5.37,16.82,0.00,19.18,2.65,0.00,0.00,0.00,0.00,29.03,23.94,3.92,20.42,44.64,34.38,40.98,17.77,4.28,0.00,0.00,0.23
1,38.52,31.65,12.00,16.60,35.00,22.22,18.60,16.49,25.20,0.00,0.00,5.15,16.61,0.00,20.55,2.54,0.00,0.00,0.00,0.00,28.40,23.94,3.92,19.83,43.75,34.38,37.70,17.58,4.17,0.00,0.00,0.22
0,36.18,27.85,10.00,14.82,33.71,22.22,18.60,15.67,23.55,0.00,0.00,4.66,16.06,0.00,17.81,2.44,0.00,0.00,0.00,0.00,26.44,21.13,3.92,15.58,39.65,28.12,34.43,14.03,4.07,0.00,0.00,0.21
0,34.89,25.32,8.00,14.08,31.21,17.78,13.95,12.54,24.38,0.00,0.00,5.00,16.29,0.00,17.81,2.43,0.00,0.00,0.00,0.00,23.61,15.49,3.92,12.25,35.05,21.87,27.87,10.88,3.89,0.00,0.00,0.19
0,32.92,21.52,6.00,12.85,29.43,13.33,11.63,11.15,24.97,0.00,0.00,5.06,15.88,0.00,16.44,2.36,0.00,0.00,0.00,0.00,21.66,11.27,3.92,11.05,31.43,12.50,22.95,8.93,3.89,0.00,0.00,0.19
0,32.26,17.72,6.00,12.20,27.42,11.11,9.30,9.39,24.50,0.00,0.00,4.83,16.41,0.00,17.81,2.55,0.00,0.00,0.00,0.00,20.05,8.45,3.92,9.46,29.45,9.38,21.31,7.63,3.60,0.00,0.00,0.14
0,30.36,16.46,6.00,10.62,24.53,6.67,4.65,8.04,23.74,0.00,0.00,4.57,15.43,0.00,16.44,2.38,0.00,0.00,0.00,0.00,16.99,4.23,0.00,5.29,23.78,3.12,14.75,4.12,3.31,0.00,0.00,0.11
0,27.94,13.92,4.00,7.99,22.42,2.22,2.33,5.24,23.25,0.00,0.00,4.60,15.33,0.00,16.44,2.29,0.00,0.00,0.00,0.00,17.01,2.82,0.00,4.96,22.87,0.00,14.75,3.28,3.19,0.00,0.00,0.10
0,26.72,11.39,4.00,7.70,21.80,0.00,0.00,4.77,23.40,0.00,0.00,4.74,14.73,0.00,15.07,2.13,0.00,0.00,0.00,0.00,16.60,2.82,0.00,4.26,21.87,0.00,13.11,2.96,3.16,0.00,0.00,0.10
0,26.24,11.39,4.00,7.49,21.13,0.00,0.00,4.45,23.34,0.00,0.00,4.71,14.91,0.00,15.07,2.18,0.00,0.00,0.00,0.00,16.82,2.82,0.00,4.07,21.51,0.00,13.11,2.93,3.27,0.00,0.00,0.10
0,24.13,8.86,4.00,6.08,20.99,0.00,0.00,4.39,23.28,0.00,0.00,4.72,14.15,0.00,13.70,1.95,0.00,0.00,0.00,0.00,16.25,2.82,0.00,3.93,20.37,0.00,9.84,2.66,3.22,0.00,0.00,0.10
0,22.53,6.33,2.00,5.11,20.63,0.00,0.00,4.15,22.74,0.00,0.00,4.52,14.03,0.00,13.70,1.90,0.00,0.00,0.00,0.00,16.13,2.82,0.00,3.93,20.20,0.00,9.84,2.68,3.22,0.00,0.00,0.10
0,20.48,3.80,0.00,4.01,20.56,0.00,0.00,4.02,23.06,0.00,0.00,4.62,14.18,0.00,13.70,1.99,0.00,0.00,0.00,0.00,15.52,2.82,0.00,3.79,19.59,0.00,8.20,2.47,3.09,0.00,0.00,0.09
0,19.41,1.27,0.00,3.31,20.37,0.00,0.00,3.97,23.07,0.00,0.00,4.60,13.88,0.00,12.33,1.98,0.00,0.00,0.00,0.00,15.46,2.82,0.00,3.74,18.99,0.00,8.20,2.40,3.15,0.00,0.00,0.10
0,18.70,1.27,0.00,3.20,20.12,0.00,0.00,3.79,22.42,0.00,0.00,4.27,14.09,0.00,13.70,2.08,0.00,0.00,0.00,0.00,14.87,2.82,0.00,3.31,17.24,0.00,6.56,1.76,3.20,0.00,0.00,0.10
0,18.85,1.27,0.00,3.15,20.03,0.00,0.00,3.71,21.54,0.00,0.00,3.93,13.58,0.00,10.96,1.97,0.00,0.00,0.00,0.00,14.82,2.82,0.00,3.15,16.64,0.00,6.56,1.50,3.18,0.00,0.00,0.10
0,18.38,2.53,0.00,3.02,20.54,0.00,0.00,3.88,22.23,0.00,0.00,4.45,13.88,0.00,10.96,2.08,0.00,0.00,0.00,0.00,15.32,2.82,0.00,3.32,17.63,0.00,8.20,1.60,3.24,0.00,0.00,0.10
0,18.22,2.53,0.00,3.03,21.22,0.00,0.00,4.06,22.20,0.00,0.00,4.35,13.90,0.00,10.96,2.28,0.00,0.00,0.00,0.00,15.23,2.82,0.00,3.36,16.90,0.00,6.56,1.52,3.26,0.00,0.00,0.11
0,17.43,1.27,0.00,2.76,20.24,0.00,0.00,3.70,23.18,0.00,0.00,4.71,14.31,0.00,12.33,2.41,0.00,0.00,0.00,0.00,15.05,2.82,0.00,3.26,16.95,0.00,6.56,1.58,3.31,0.00,0.00,0.11
0,17.85,1.27,0.00,2.85,21.14,0.00,0.00,3.91,23.09,0.00,0.00,4.64,14.77,0.00,12.33,2.48,0.00,0.00,0.00,0.00,16.10,2.82,0.00,3.57,16.81,0.00,6.56,1.60,3.32,0.00,0.00,0.12
0,18.42,1.27,0.00,2.98,21.36,0.00,0.00,3.97,23.18,0.00,0.00,4.64,14.87,0.00,13.70,2.55,0.00,0.00,0.00,0.00,15.97,0.00,0.00,3.32,17.49,0.00,6.56,1.74,3.25,0.00,0.00,0.11
0,18.63,2.53,0.00,3.23,21.07,0.00,0.00,3.87,24.48,0.00,0.00,5.11,15.30,0.00,15.07,2.67,0.00,0.00,0.00,0.00,16.50,0.00,0.00,3.55,17.69,0.00,6.56,1.78,3.25,0.00,0.00,0.11
0,18.56,2.53,0.00,3.22,21.08,0.00,0.00,3.86,23.97,0.00,0.00,5.11,15.17,0.00,13.70,2.64,0.00,0.00,0.00,0.00,16.85,0.00,0.00,3.60,17.75,0.00,6.56,1.73,3.26,0.00,0.00,0.11
0,19.05,2.53,0.00,3.29,21.50,0.00,0.00,4.01,24.28,0.00,0.00,5.26,15.25,0.00,13.70,2.66,0.00,0.00,0.00,0.00,16.93,0.00,0.00,3.64,17.85,0.00,6.56,1.76,3.24,0.00,0.00,0.11
0,18.94,2.53,0.00,3.28,20.83,0.00,0.00,3.89,22.90,0.00,0.00,4.76,15.01,0.00,12.33,2.57,0.00,0.00,0.00,0.00,16.37,0.00,0.00,3.52,17.29,0.00,6.56,1.69,3.30,0.00,0.00,0.12
0,18.58,2.53,0.00,3.22,20.66,0.00,0.00,3.85,23.18,0.00,0.00,5.00,15.21,0.00,13.70,2.62,0.00,0.00,0.00,0.00,17.30,1.41,0.00,3.84,17.15,0.00,6.56,1.64,3.25,0.00,0.00,0.11
0,18.49,2.53,0.00,3.23,20.66,0.00,0.00,3.78,23.04,0.00,0.00,5.05,15.17,0.00,13.70,2.58,0.00,0.00,0.00,0.00,17.38,1.41,0.00,3.87,16.93,0.00,4.92,1.55,3.24,0.00,0.00,0.11
0,17.79,2.53,0.00,3.06,21.00,0.00,0.00,3.91,23.49,0.00,0.00,5.29,15.72,0.00,15.07,2.76,0.00,0.00,0.00,0.00,17.62,1.41,0.00,3.92,17.31,0.00,6.56,1.62,3.28,0.00,0.00,0.11
0,17.27,2.53,0.00,3.01,20.46,0.00,0.00,3.68,23.67,0.00,0.00,5.26,15.70,0.00,13.70,2.79,0.00,0.00,0.00,0.00,16.52,1.41,0.00,3.72,17.22,0.00,4.92,1.58,3.23,0.00,0.00,0.11
0,17.16,2.53,0.00,2.87,19.93,0.00,0.00,3.53,23.76,0.00,0.00,5.40,15.67,0.00,13.70,2.75,0.00,0.00,0.00,0.00,16.19,1.41,0.00,3.65,16.76,0.00,3.28,1.50,3.13,0.00,0.00,0.11
0,17.21,2.53,0.00,2.96,19.76,0.00,0.00,3.49,24.37,0.00,0.00,5.74,15.67,0.00,15.07,2.75,0.00,0.00,0.00,0.00,15.89,1.41,0.00,3.70,16.48,0.00,3.28,1.49,3.13,0.00,0.00,0.11
0,17.16,2.53,0.00,3.07,19.26,0.00,0.00,3.39,24.69,0.00,0.00,5.76,16.47,0.00,16.44,3.01,0.00,0.00,0.00,0.00,15.54,1.41,0.00,3.55,16.59,0.00,3.28,1.50,3.13,0.00,0.00,0.11
0,17.34,2.53,0.00,3.13,18.99,0.00,0.00,3.36,24.87,0.00,0.00,5.86,16.50,0.00,16.44,3.02,0.00,0.00,0.00,0.00,15.48,1.41,0.00,3.50,16.60,0.00,3.28,1.50,3.09,0.00,0.00,0.10
0,17.29,2.53,0.00,3.10,18.53,0.00,0.00,3.35,25.17,0.00,0.00,6.20,16.07,0.00,15.07,2.89,0.00,0.00,0.00,0.00,16.71,4.23,0.00,4.34,17.18,0.00,3.28,1.57,3.12,0.00,0.00,0.10
0,17.44,2.53,0.00,3.21,17.93,0.00,0.00,2.92,25.57,0.00,0.00,6.27,16.43,0.00,16.44,2.96,0.00,0.00,0.00,0.00,17.08,4.23,0.00,4.48,17.16,0.00,3.28,1.56,3.16,0.00,0.00,0.12
0,17.76,2.53,0.00,3.29,17.57,0.00,0.00,2.86,25.54,0.00,0.00,6.04,15.93,0.00,15.07,2.82,0.00,0.00,0.00,0.00,17.46,5.63,0.00,4.82,17.49,0.00,3.28,1.60,3.09,0.00,0.00,0.11
0,18.18,3.80,0.00,3.46,17.50,0.00,0.00,2.81,26.26,0.00,0.00,6.32,15.99,0.00,15.07,2.83,0.00,0.00,0.00,0.00,17.56,5.63,0.00,4.88,18.21,0.00,3.28,1.65,3.10,0.00,0.00,0.11
0,17.44,2.53,0.00,3.23,17.65,0.00,0.00,2.93,25.82,0.00,0.00,5.84,16.14,0.00,16.44,2.81,0.00,0.00,0.00,0.00,17.59,5.63,0.00,5.06,17.82,0.00,1.64,1.70,3.23,0.00,0.00,0.12
0,17.31,2.53,0.00,3.16,16.92,0.00,0.00,2.77,27.15,0.00,0.00,6.54,15.66,0.00,15.07,2.61,0.00,0.00,0.00,0.00,18.02,5.63,0.00,5.22,18.25,0.00,1.64,1.75,3.19,0.00,0.00,0.11
0,18.07,2.53,0.00,3.26,17.04,0.00,0.00,2.83,26.33,0.00,0.00,6.35,15.74,0.00,15.07,2.59,0.00,0.00,0.00,0.00,18.75,7.04,0.00,5.67,18.19,0.00,3.28,1.68,3.06,0.00,0.00,0.10
0,17.99,2.53,0.00,3.29,16.59,0.00,0.00,2.69,26.34,0.00,0.00,6.61,15.54,0.00,16.44,2.56,0.00,0.00,0.00,0.00,18.57,7.04,0.00,5.64,18.30,0.00,3.28,1.63,3.05,0.00,0.00,0.10
0,17.94,2.53,0.00,3.29,16.67,0.00,0.00,2.72,26.24,0.00,0.00,6.71,15.27,0.00,15.07,2.44,0.00,0.00,0.00,0.00,18.24,7.04,0.00,5.33,18.13,0.00,4.92,1.62,3.16,0.00,0.00,0.10
0,17.37,1.27,0.00,3.05,16.55,0.00,0.00,2.64,26.25,0.00,0.00,6.52,15.12,0.00,15.07,2.33,0.00,0.00,0.00,0.00,17.94,7.04,0.00,5.15,17.72,0.00,4.92,1.54,3.13,0.00,0.00,0.10
0,17.13,1.27,0.00,2.95,16.22,0.00,0.00,2.56,26.34,0.00,0.00,6.45,15.02,0.00,15.07,2.35,0.00,0.00,0.00,0.00,18.21,8.45,0.00,5.40,18.23,0.00,6.56,1.60,3.12,0.00,0.00,0.10
0,17.22,1.27,0.00,3.00,15.97,0.00,0.00,2.40,26.45,0.00,0.00,6.38,15.25,0.00,16.44,2.42,0.00,0.00,0.00,0.00,17.96,8.45,0.00,5.36,18.82,0.00,6.56,1.69,3.16,0.00,0.00,0.10
0,16.67,1.27,0.00,2.86,16.26,0.00,0.00,2.47,26.89,0.00,0.00,6.47,15.15,0.00,16.44,2.41,0.00,0.00,0.00,0.00,18.12,8.45,0.00,5.36,19.34,0.00,8.20,1.78,3.15,0.00,0.00,0.10
0,16.99,1.27,0.00,2.94,16.54,0.00,0.00,2.50,27.15,0.00,0.00,6.51,14.91,0.00,16.44,2.38,0.00,0.00,0.00,0.00,17.47,8.45,0.00,5.26,19.25,0.00,9.84,1.82,3.10,0.00,0.00,0.10
0,16.82,1.27,0.00,2.88,16.65,0.00,0.00,2.53,27.16,0.00,0.00,6.48,14.45,0.00,15.07,2.21,0.00,0.00,0.00,0.00,17.43,8.45,0.00,5.22,18.98,0.00,9.84,1.79,3.17,0.00,0.00,0.11
0,16.79,1.27,0.00,2.87,16.93,0.00,0.00,2.65,26.21,0.00,0.00,6.10,13.88,0.00,13.70,2.01,0.00,0.00,0.00,0.00,17.36,8.45,0.00,5.23,18.87,0.00,9.84,1.78,3.27,0.00,0.00,0.11
0,17.15,1.27,0.00,2.91,16.59,0.00,0.00,2.56,26.27,0.00,0.00,6.12,13.90,0.00,13.70,1.98,0.00,0.00,0.00,0.00,17.66,8.45,0.00,5.33,17.96,0.00,8.20,1.68,3.27,0.00,0.00,0.11
0,17.11,1.27,0.00,2.99,16.82,0.00,0.00,2.57,26.25,0.00,0.00,5.86,14.20,0.00,13.70,2.11,0.00,0.00,0.00,0.00,17.28,8.45,0.00,5.21,18.31,0.00,9.84,1.73,3.35,0.00,0.00,0.12
0,17.31,1.27,0.00,2.96,17.55,0.00,0.00,2.84,25.97,0.00,0.00,5.88,14.25,0.00,13.70,2.16,0.00,0.00,0.00,0.00,17.34,8.45,0.00,5.11,18.85,0.00,9.84,1.83,3.33,0.00,0.00,0.12
0,17.00,1.27,0.00,2.68,17.72,0.00,0.00,2.91,25.90,0.00,0.00,5.94,13.72,0.00,13.70,1.90,0.00,0.00,0.00,0.00,17.77,8.45,0.00,5.31,18.74,0.00,9.84,1.80,3.32,0.00,0.00,0.12
0,16.95,1.27,0.00,2.63,18.20,0.00,0.00,3.02,25.35,0.00,0.00,5.87,13.75,0.00,13.70,1.91,0.00,0.00,0.00,0.00,17.66,8.45,0.00,5.29,19.41,0.00,11.48,1.94,3.28,0.00,0.00,0.11
0,16.76,1.27,0.00,2.65,18.33,0.00,0.00,3.05,24.95,0.00,0.00,5.64,14.02,0.00,13.70,2.01,0.00,0.00,0.00,0.00,16.34,5.63,0.00,4.62,18.90,0.00,11.48,1.93,3.19,0.00,0.00,0.11
0,16.56,1.27,0.00,2.57,18.37,0.00,0.00,3.06,25.71,0.00,0.00,5.97,13.98,0.00,15.07,1.95,0.00,0.00,0.00,0.00,15.81,5.63,0.00,4.32,18.98,0.00,11.48,1.94,3.08,0.00,0.00,0.09
0,15.85,1.27,0.00,2.37,18.31,0.00,0.00,3.02,26.02,0.00,0.00,6.13,14.42,0.00,15.07,2.05,0.00,0.00,0.00,0.00,16.08,5.63,0.00,4.37,18.70,0.00,11.48,1.90,3.01,0.00,0.00,0.09
0,14.81,0.00,0.00,2.07,18.47,0.00,0.00,3.06,25.41,0.00,0.00,5.96,14.43,0.00,16.44,2.08,0.00,0.00,0.00,0.00,14.97,4.23,0.00,3.84,18.69,0.00,11.48,1.85,2.90,0.00,0.00,0.09
0,14.85,0.00,0.00,2.12,17.92,0.00,0.00,2.86,24.02,0.00,0.00,5.67,14.39,0.00,16.44,2.13,0.00,0.00,0.00,0.00,14.49,4.23,0.00,3.63,18.42,0.00,13.11,1.76,2.87,0.00,0.00,0.09
0,14.71,0.00,0.00,2.18,18.93,0.00,0.00,3.20,23.34,0.00,0.00,5.28,14.08,0.00,16.44,2.02,0.00,0.00,0.00,0.00,14.91,4.23,0.00,3.67,19.42,0.00,14.75,1.93,2.82,0.00,0.00,0.09
0,14.15,0.00,0.00,2.08,19.14,0.00,0.00,3.25,23.64,0.00,0.00,5.08,13.75,0.00,15.07,1.96,0.00,0.00,0.00,0.00,14.28,2.82,0.00,3.29,19.42,0.00,14.75,1.95,2.87,0.00,0.00,0.10
0,13.62,0.00,0.00,1.96,19.17,0.00,0.00,3.27,22.93,0.00,0.00,4.61,13.41,0.00,13.70,1.86,0.00,0.00,0.00,0.00,14.00,2.82,0.00,3.22,20.29,0.00,16.39,2.05,2.98,0.00,0.00,0.11
0,13.05,0.00,0.00,1.77,18.75,0.00,0.00,3.17,23.67,0.00,0.00,4.81,13.67,0.00,15.07,1.92,0.00,0.00,0.00,0.00,13.70,2.82,0.00,3.15,19.59,0.00,14.75,1.94,2.95,0.00,0.00,0.11
0,13.01,0.00,0.00,1.73,18.74,0.00,0.00,3.19,23.59,0.00,0.00,4.80,13.66,0.00,13.70,1.97,0.00,0.00,0.00,0.00,13.54,2.82,0.00,3.12,19.74,0.00,14.75,1.94,2.94,0.00,0.00,0.11
0,12.96,0.00,0.00,1.71,18.63,0.00,0.00,3.18,23.00,0.00,0.00,4.76,13.51,0.00,13.70,1.91,0.00,0.00,0.00,0.00,13.16,2.82,0.00,2.96,20.26,0.00,13.11,2.05,3.12,0.00,0.00,0.12
0,12.61,0.00,0.00,1.65,18.64,0.00,0.00,3.19,23.37,0.00,0.00,4.84,13.16,0.00,12.33,1.83,0.00,0.00,0.00,0.00,12.96,1.41,0.00,2.73,20.41,0.00,13.11,2.06,3.07,0.00,0.00,0.12
0,12.45,0.00,0.00,1.63,18.74,0.00,0.00,3.19,22.79,0.00,0.00,4.75,13.14,0.00,12.33,1.85,0.00,0.00,0.00,0.00,12.89,1.41,0.00,2.74,19.85,0.00,11.48,2.01,3.18,0.00,0.00,0.12
0,12.49,0.00,0.00,1.60,18.76,0.00,0.00,3.23,22.78,0.00,0.00,4.57,13.10,0.00,10.96,1.85,0.00,0.00,0.00,0.00,12.72,0.00,0.00,2.55,19.53,0.00,9.84,1.95,3.32,0.00,0.00,0.13
0,12.52,0.00,0.00,1.62,19.03,0.00,0.00,3.35,23.15,0.00,0.00,4.79,13.55,0.00,12.33,1.92,0.00,0.00,0.00,0.00,12.93,0.00,0.00,2.58,20.42,0.00,9.84,2.15,3.40,0.00,0.00,0.14
0,12.41,0.00,0.00,1.61,19.06,0.00,0.00,3.45,23.29,0.00,0.00,4.95,13.66,0.00,12.33,1.97,0.00,0.00,0.00,0.00,13.24,0.00,0.00,2.66,21.03,0.00,9.84,2.26,3.38,0.00,0.00,0.14
0,12.74,0.00,0.00,1.75,18.89,0.00,0.00,3.32,23.63,0.00,0.00,5.03,13.81,0.00,12.33,1.99,0.00,0.00,0.00,0.00,12.64,0.00,0.00,2.40,21.72,0.00,9.84,2.34,3.39,0.00,0.00,0.14
0,12.83,0.00,0.00,1.67,18.74,0.00,0.00,3.38,23.64,0.00,0.00,5.22,13.69,0.00,12.33,1.88,0.00,0.00,0.00,0.00,13.31,0.00,0.00,2.65,21.55,0.00,8.20,2.28,3.37,0.00,0.00,0.13
0,12.67,0.00,0.00,1.63,18.22,0.00,0.00,3.19,23.12,0.00,0.00,4.95,13.50,0.00,10.96,1.78,0.00,0.00,0.00,0.00,13.07,0.00,0.00,2.59,20.76,0.00,8.20,2.15,3.50,0.00,0.00,0.14
0,13.12,0.00,0.00,1.77,17.81,0.00,0.00,3.01,23.02,0.00,0.00,4.76,13.49,0.00,9.59,1.82,0.00,0.00,0.00,0.00,12.83,0.00,0.00,2.45,20.74,0.00,8.20,2.14,3.47,0.00,0.00,0.14
0,13.04,0.00,0.00,1.82,17.50,0.00,0.00,2.97,22.75,0.00,0.00,4.75,13.63,0.00,12.33,1.86,0.00,0.00,0.00,0.00,13.24,0.00,0.00,2.63,20.83,0.00,8.20,2.14,3.60,0.00,0.00,0.15
0,13.50,0.00,0.00,1.86,17.65,0.00,0.00,2.97,23.45,0.00,0.00,4.95,13.61,0.00,12.33,1.79,0.00,0.00,0.00,0.00,13.43,0.00,0.00,2.70,20.68,0.00,8.20,2.08,3.73,0.00,0.00,0.15
0,13.60,0.00,0.00,1.90,17.45,0.00,0.00,2.97,22.61,0.00,0.00,4.49,13.46,0.00,9.59,1.78,0.00,0.00,0.00,0.00,13.54,0.00,0.00,2.72,21.01,0.00,9.84,2.12,3.68,0.00,0.00,0.15
0,13.67,0.00,0.00,1.90,17.68,0.00,0.00,3.08,22.17,0.00,0.00,4.36,13.18,0.00,9.59,1.72,0.00,0.00,0.00,0.00,13.23,0.00,0.00,2.67,21.19,0.00,13.11,2.17,3.83,0.00,0.00,0.16
0,14.27,0.00,0.00,2.02,18.27,0.00,0.00,3.18,22.29,0.00,0.00,4.33,13.28,0.00,9.59,1.68,0.00,0.00,0.00,0.00,13.28,0.00,0.00,2.70,21.42,0.00,13.11,2.17,3.89,0.00,0.00,0.16
0,13.95,0.00,0.00,1.93,19.10,0.00,0.00,3.50,22.70,0.00,0.00,4.42,13.03,0.00,8.22,1.59,0.00,0.00,0.00,0.00,13.56,0.00,0.00,2.79,21.44,0.00,11.48,2.20,3.84,0.00,0.00,0.15
0,13.74,0.00,0.00,1.84,18.45,0.00,0.00,3.13,23.13,0.00,0.00,4.68,13.78,0.00,10.96,1.73,0.00,0.00,0.00,0.00,13.36,0.00,0.00,2.73,20.36,0.00,9.84,2.01,3.89,0.00,0.00,0.15
0,14.30,0.00,0.00,1.90,18.46,0.00,0.00,3.28,22.79,0.00,0.00,4.67,13.89,0.00,10.96,1.73,0.00,0.00,0.00,0.00,12.76,0.00,0.00,2.43,19.22,0.00,8.20,1.87,3.88,0.00,0.00,0.15
0,14.04,0.00,0.00,1.83,18.38,0.00,0.00,3.34,22.98,0.00,0.00,4.81,14.60,0.00,12.33,1.92,0.00,0.00,0.00,0.00,12.95,0.00,0.00,2.43,18.41,0.00,6.56,1.78,3.82,0.00,0.00,0.14
0,14.09,0.00,0.00,1.85,18.84,0.00,0.00,3.43,22.44,0.00,0.00,4.56,14.43,0.00,10.96,1.92,0.00,0.00,0.00,0.00,12.59,0.00,0.00,2.37,18.95,0.00,6.56,1.84,3.83,0.00,0.00,0.14
0,14.16,0.00,0.00,1.91,18.84,0.00,0.00,3.42,22.40,0.00,0.00,4.47,15.30,0.00,12.33,2.28,0.00,0.00,0.00,0.00,12.19,0.00,0.00,2.33,19.08,0.00,6.56,1.89,3.94,0.00,0.00,0.15
0,14.42,0.00,0.00,1.94,18.30,0.00,0.00,3.31,22.29,0.00,0.00,4.58,15.01,0.00,12.33,2.24,0.00,0.00,0.00,0.00,12.14,0.00,0.00,2.29,18.44,0.00,6.56,1.73,3.82,0.00,0.00,0.14
0,13.94,0.00,0.00,1.85,18.02,0.00,0.00,3.28,22.67,0.00,0.00,4.65,14.90,0.00,12.33,2.23,0.00,0.00,0.00,0.00,11.82,0.00,0.00,2.21,17.93,0.00,6.56,1.70,3.80,0.00,0.00,0.14
0,14.13,0.00,0.00,1.87,17.94,0.00,0.00,3.28,23.37,0.00,0.00,4.77,14.74,0.00,12.33,2.19,0.00,0.00,0.00,0.00,11.87,0.00,0.00,2.18,17.51,0.00,6.56,1.61,3.73,0.00,0.00,0.14
0,13.77,0.00,0.00,1.84,17.90,0.00,0.00,3.35,23.16,0.00,0.00,4.71,14.69,0.00,12.33,2.18,0.00,0.00,0.00,0.00,11.51,0.00,0.00,2.13,17.31,0.00,6.56,1.57,3.74,0.00,0.00,0.14
0,13.90,0.00,0.00,1.87,17.95,0.00,0.00,3.33,22.56,0.00,0.00,4.49,14.45,0.00,12.33,2.15,0.00,0.00,0.00,0.00,11.06,0.00,0.00,2.00,17.35,0.00,8.20,1.58,3.65,0.00,0.00,0.13
0,14.36,0.00,0.00,1.93,17.27,0.00,0.00,3.09,22.38,0.00,0.00,4.55,14.72,0.00,12.33,2.21,0.00,0.00,0.00,0.00,10.96,0.00,0.00,2.01,16.70,0.00,8.20,1.43,3.57,0.00,0.00,0.13
0,14.11,0.00,0.00,1.84,17.81,0.00,0.00,3.22,22.74,0.00,0.00,4.50,14.88,0.00,13.70,2.30,0.00,0.00,0.00,0.00,11.32,0.00,0.00,2.10,16.63,0.00,8.20,1.39,3.57,0.00,0.00,0.13
0,14.23,0.00,0.00,1.86,17.83,0.00,0.00,3.27,22.92,0.00,0.00,4.71,14.74,0.00,15.07,2.29,0.00,0.00,0.00,0.00,11.09,0.00,0.00,2.23,16.71,0.00,8.20,1.46,3.44,0.00,0.00,0.13
0,14.05,0.00,0.00,1.83,17.38,0.00,0.00,3.13,23.08,0.00,0.00,4.89,14.88,0.00,15.07,2.36,0.00,0.00,0.00,0.00,10.82,0.00,0.00,1.98,17.08,0.00,8.20,1.51,3.48,0.00,0.00,0.13
0,13.22,0.00,0.00,1.62,17.82,0.00,0.00,3.30,23.99,0.00,0.00,5.42,14.73,0.00,15.07,2.31,0.00,0.00,0.00,0.00,10.79,0.00,0.00,1.99,17.44,0.00,8.20,1.58,3.42,0.00,0.00,0.13
0,13.31,0.00,0.00,1.59,18.05,0.00,0.00,3.37,24.59,0.00,0.00,5.49,14.59,0.00,12.33,2.28,0.00,0.00,0.00,0.00,10.56,0.00,0.00,1.80,17.61,0.00,6.56,1.59,3.30,0.00,0.00,0.12
0,13.06,0.00,0.00,1.52,18.19,0.00,0.00,3.39,24.97,0.00,0.00,5.75,14.46,0.00,12.33,2.24,0.00,0.00,0.00,0.00,10.63,0.00,0.00,1.84,17.73,0.00,8.20,1.60,3.37,0.00,0.00,0.13
0,12.65,0.00,0.00,1.39,19.02,0.00,0.00,3.65,25.54,0.00,0.00,6.08,14.60,0.00,13.70,2.34,0.00,0.00,0.00,0.00,10.42,0.00,0.00,1.76,17.74,0.00,6.56,1.65,3.36,0.00,0.00,0.13
0,12.57,0.00,0.00,1.38,18.10,0.00,0.00,3.43,25.69,0.00,0.00,6.16,14.26,0.00,13.70,2.30,0.00,0.00,0.00,0.00,10.38,0.00,0.00,1.78,17.52,0.00,3.28,1.65,3.31,0.00,0.00,0.13
0,12.33,0.00,0.00,1.30,17.78,0.00,0.00,3.42,26.30,0.00,0.00,6.68,14.11,0.00,12.33,2.37,0.00,0.00,0.00,0.00,10.63,0.00,0.00,1.79,17.80,0.00,3.28,1.70,3.35,0.00,0.00,0.13
0,12.28,0.00,0.00,1.34,16.85,0.00,0.00,3.09,26.79,0.00,0.00,6.90,14.82,0.00,15.07,2.58,0.00,0.00,0.00,0.00,10.41,0.00,0.00,1.68,17.43,0.00,3.28,1.68,3.26,0.00,0.00,0.12
0,12.69,0.00,0.00,1.44,16.95,0.00,0.00,3.14,26.26,0.00,0.00,6.56,14.13,0.00,12.33,2.45,0.00,0.00,0.00,0.00,10.30,0.00,0.00,1.62,17.70,0.00,3.28,1.68,3.37,0.00,0.00,0.13
0,12.52,0.00,0.00,1.46,17.02,0.00,0.00,3.18,26.74,0.00,0.00,6.71,14.59,0.00,13.70,2.72,0.00,0.00,0.00,0.00,10.52,0.00,0.00,1.84,18.09,0.00,3.28,1.74,3.25,0.00,0.00,0.12
0,12.26,0.00,0.00,1.44,16.71,0.00,0.00,2.95,26.47,0.00,0.00,6.56,14.01,0.00,12.33,2.53,0.00,0.00,0.00,0.00,10.06,0.00,0.00,1.75,18.28,0.00,3.28,1.75,3.24,0.00,0.00,0.13
0,12.51,0.00,0.00,1.48,16.25,0.00,0.00,2.87,26.73,0.00,0.00,6.72,13.83,0.00,12.33,2.49,0.00,0.00,0.00,0.00,10.30,0.00,0.00,1.77,18.48,0.00,6.56,1.79,3.13,0.00,0.00,0.12
0,12.50,0.00,0.00,1.45,16.51,0.00,0.00,2.93,27.40,0.00,0.00,6.83,13.47,0.00,12.33,2.26,0.00,0.00,0.00,0.00,10.31,0.00,0.00,1.78,18.87,0.00,6.56,1.82,3.11,0.00,0.00,0.12
0,12.36,0.00,0.00,1.44,16.65,0.00,0.00,2.96,27.63,0.00,0.00,7.06,13.84,0.00,12.33,2.37,0.00,0.00,0.00,0.00,10.31,0.00,0.00,1.78,19.45,0.00,6.56,2.00,3.15,0.00,0.00,0.12
0,12.45,0.00,0.00,1.42,16.63,0.00,0.00,2.93,27.42,0.00,0.00,6.88,14.18,0.00,15.07,2.46,0.00,0.00,0.00,0.00,10.37,0.00,0.00,1.79,19.12,0.00,6.56,1.97,3.20,0.00,0.00,0.12
0,12.56,0.00,0.00,1.50,17.00,0.00,0.00,2.93,26.64,0.00,0.00,6.71,14.42,0.00,16.44,2.51,0.00,0.00,0.00,0.00,10.25,0.00,0.00,1.77,18.60,0.00,6.56,1.90,3.12,0.00,0.00,0.12
0,12.79,0.00,0.00,1.54,17.31,0.00,0.00,3.03,26.28,0.00,0.00,6.69,14.39,0.00,16.44,2.52,0.00,0.00,0.00,0.00,10.22,0.00,0.00,1.77,19.29,0.00,6.56,1.96,3.07,0.00,0.00,0.12
0,12.27,0.00,0.00,1.43,17.38,0.00,0.00,3.04,25.91,0.00,0.00,6.63,14.56,0.00,16.44,2.50,0.00,0.00,0.00,0.00,10.99,0.00,0.00,2.08,19.59,0.00,6.56,2.06,3.03,0.00,0.00,0.11
0,12.12,0.00,0.00,1.45,17.58,0.00,0.00,2.98,25.71,0.00,0.00,6.56,15.05,0.00,17.81,2.69,0.00,0.00,0.00,0.00,10.95,0.00,0.00,2.09,19.51,0.00,6.56,2.00,3.13,0.00,0.00,0.12
0,11.87,0.00,0.00,1.39,17.26,0.00,0.00,2.94,25.59,0.00,0.00,6.67,14.65,0.00,16.44,2.61,0.00,0.00,0.00,0.00,11.12,0.00,0.00,2.05,19.82,0.00,6.56,2.08,3.14,0.00,0.00,0.12
0,11.73,0.00,0.00,1.36,17.33,0.00,0.00,3.01,24.46,0.00,0.00,6.21,14.54,0.00,15.07,2.57,0.00,0.00,0.00,0.00,10.64,0.00,0.00,1.77,19.72,0.00,6.56,2.04,3.18,0.00,0.00,0.11
0,11.83,0.00,0.00,1.49,17.28,0.00,0.00,3.00,24.99,0.00,0.00,6.32,14.84,0.00,16.44,2.59,0.00,0.00,0.00,0.00,10.81,0.00,0.00,1.81,19.29,0.00,6.56,1.97,3.06,0.00,0.00,0.11
0,12.23,0.00,0.00,1.66,16.70,0.00,0.00,2.88,24.63,0.00,0.00,6.08,15.43,0.00,17.81,2.83,0.00,0.00,0.00,0.00,10.85,0.00,0.00,1.83,19.33,0.00,6.56,1.95,3.11,0.00,0.00,0.11
0,12.39,0.00,0.00,1.75,16.16,0.00,0.00,2.80,25.65,0.00,0.00,6.33,15.76,0.00,19.18,2.95,0.00,0.00,0.00,0.00,10.59,0.00,0.00,1.83,19.37,0.00,6.56,1.97,3.18,0.00,0.00,0.11
0,12.25,0.00,0.00,1.78,16.04,0.00,0.00,2.75,24.65,0.00,0.00,6.12,15.94,0.00,19.18,3.08,0.00,0.00,0.00,0.00,10.05,0.00,0.00,1.69,19.37,0.00,4.92,2.03,3.15,0.00,0.00,0.11
0,12.59,0.00,0.00,1.83,15.09,0.00,0.00,2.49,24.47,0.00,0.00,5.98,15.84,0.00,19.18,3.16,0.00,0.00,0.00,0.00,10.63,0.00,0.00,1.91,18.68,0.00,4.92,1.91,3.21,0.00,0.00,0.11
0,12.44,0.00,0.00,1.81,15.05,0.00,0.00,2.44,24.52,0.00,0.00,6.29,16.28,0.00,19.18,3.25,0.00,0.00,0.00,0.00,10.68,0.00,0.00,1.87,18.57,0.00,4.92,1.89,3.20,0.00,0.00,0.11
0,12.32,0.00,0.00,1.80,15.43,0.00,0.00,2.54,24.69,0.00,0.00,6.28,16.57,0.00,19.18,3.28,0.00,0.00,0.00,0.00,10.65,0.00,0.00,1.84,18.46,0.00,4.92,1.86,3.12,0.00,0.00,0.11
0,12.50,0.00,0.00,1.83,15.45,0.00,0.00,2.48,25.14,0.00,0.00,6.78,16.42,0.00,16.44,3.31,0.00,0.00,0.00,0.00,10.94,0.00,0.00,1.96,18.30,0.00,4.92,1.85,3.22,0.00,0.00,0.11
0,12.48,0.00,0.00,1.83,15.42,0.00,0.00,2.47,24.70,0.00,0.00,6.86,16.75,0.00,19.18,3.38,0.00,0.00,0.00,0.00,11.10,0.00,0.00,2.00,18.70,0.00,4.92,1.91,3.08,0.00,0.00,0.11
0,12.14,0.00,0.00,1.79,15.08,0.00,0.00,2.41,24.83,0.00,0.00,6.80,16.43,0.00,19.18,3.26,0.00,0.00,0.00,0.00,10.55,0.00,0.00,1.77,18.57,0.00,4.92,1.91,3.08,0.00,0.00,0.10
0,12.85,0.00,0.00,1.89,14.94,0.00,0.00,2.21,25.21,0.00,0.00,7.02,16.68,0.00,19.18,3.32,0.00,0.00,0.00,0.00,10.56,0.00,0.00,1.78,18.91,0.00,4.92,1.93,3.24,0.00,0.00,0.12
0,12.90,0.00,0.00,1.94,15.15,0.00,0.00,2.23,25.15,0.00,0.00,6.83,16.69,0.00,20.55,3.36,0.00,0.00,0.00,0.00,10.32,0.00,0.00,1.74,18.45,0.00,1.64,1.86,3.27,0.00,0.00,0.12
0,13.00,0.00,0.00,1.94,16.15,0.00,0.00,2.52,25.35,0.00,0.00,6.98,16.24,0.00,20.55,3.22,0.00,0.00,0.00,0.00,10.61,0.00,0.00,1.79,19.28,0.00,3.28,2.00,3.22,0.00,0.00,0.11
0,12.99,0.00,0.00,1.96,16.16,0.00,0.00,2.52,25.42,0.00,0.00,6.79,16.48,0.00,23.29,3.18,0.00,0.00,0.00,0.00,10.43,0.00,0.00,1.75,18.57,0.00,3.28,1.85,3.23,0.00,0.00,0.12
0,13.09,0.00,0.00,1.99,16.18,0.00,0.00,2.54,24.89,0.00,0.00,6.68,16.32,0.00,21.92,3.18,0.00,0.00,0.00,0.00,10.55,0.00,0.00,1.77,18.70,0.00,3.28,1.84,3.18,0.00,0.00,0.11
0,12.70,0.00,0.00,1.92,15.98,0.00,0.00,2.52,25.31,0.00,0.00,6.86,16.46,0.00,20.55,3.18,0.00,0.00,0.00,0.00,10.70,0.00,0.00,1.81,19.08,0.00,3.28,1.88,3.20,0.00,0.00,0.11
0,12.81,0.00,0.00,2.00,15.18,0.00,0.00,2.32,25.85,0.00,0.00,6.93,17.25,0.00,23.29,3.39,0.00,0.00,0.00,0.00,10.63,0.00,0.00,1.80,18.78,0.00,3.28,1.84,3.32,0.00,0.00,0.11
0,13.35,0.00,0.00,2.11,15.01,0.00,0.00,2.32,25.94,0.00,0.00,7.08,16.96,0.00,21.92,3.35,0.00,0.00,0.00,0.00,9.73,0.00,0.00,1.45,17.21,0.00,1.64,1.60,3.26,0.00,0.00,0.11
0,12.93,0.00,0.00,2.03,15.42,0.00,0.00,2.42,26.11,0.00,0.00,6.96,16.71,0.00,23.29,3.16,0.00,0.00,0.00,0.00,9.70,0.00,0.00,1.49,18.07,0.00,1.64,1.78,3.26,0.00,0.00,0.11
0,13.25,0.00,0.00,2.10,15.27,0.00,0.00,2.41,26.97,0.00,0.00,7.27,16.49,0.00,23.29,3.13,0.00,0.00,0.00,0.00,9.53,0.00,0.00,1.45,17.65,0.00,1.64,1.69,3.20,0.00,0.00,0.11
0,13.36,0.00,0.00,2.14,15.72,0.00,0.00,2.47,27.69,0.00,0.00,7.52,16.56,0.00,21.92,3.23,0.00,0.00,0.00,0.00,9.33,0.00,0.00,1.43,17.68,0.00,1.64,1.70,3.15,0.00,0.00,0.11
0,13.07,0.00,0.00,1.96,15.64,0.00,0.00,2.41,27.93,0.00,0.00,7.51,16.61,0.00,21.92,3.27,0.00,0.00,0.00,0.00,9.74,0.00,0.00,1.50,18.32,0.00,1.64,1.76,3.18,0.00,0.00,0.12
0,12.59,0.00,0.00,1.77,15.63,0.00,0.00,2.39,27.62,0.00,0.00,7.33,16.09,0.00,21.92,3.07,0.00,0.00,0.00,0.00,9.66,0.00,0.00,1.45,18.35,0.00,1.64,1.75,3.23,0.00,0.00,0.12
0,12.47,0.00,0.00,1.75,15.90,0.00,0.00,2.46,27.23,0.00,0.00,7.09,15.89,0.00,21.92,2.98,0.00,0.00,0.00,0.00,9.82,0.00,0.00,1.45,18.24,0.00,1.64,1.72,3.23,0.00,0.00,0.12
0,12.64,0.00,0.00,1.70,16.13,0.00,0.00,2.59,26.79,0.00,0.00,7.08,15.79,0.00,23.29,2.92,0.00,0.00,0.00,0.00,10.07,0.00,0.00,1.52,17.88,0.00,1.64,1.65,3.18,0.00,0.00,0.11
0,12.23,0.00,0.00,1.66,16.61,0.00,0.00,2.73,26.95,0.00,0.00,6.83,15.91,0.00,23.29,2.87,0.00,0.00,0.00,0.00,9.56,0.00,0.00,1.34,18.00,0.00,1.64,1.66,3.13,0.00,0.00,0.11
0,12.66,0.00,0.00,1.77,16.74,0.00,0.00,2.80,27.08,0.00,0.00,6.49,16.01,0.00,23.29,2.81,0.00,0.00,0.00,0.00,9.85,0.00,0.00,1.36,18.42,0.00,3.28,1.71,3.19,0.00,0.00,0.11
0,12.81,0.00,0.00,1.79,16.73,0.00,0.00,2.80,26.49,0.00,0.00,6.10,16.17,0.00,23.29,2.86,0.00,0.00,0.00,0.00,9.92,0.00,0.00,1.39,18.15,0.00,3.28,1.67,3.27,0.00,0.00,0.12
0,12.47,0.00,0.00,1.68,16.47,0.00,0.00,2.73,25.64,0.00,0.00,5.49,15.85,0.00,24.66,2.64,0.00,0.00,0.00,0.00,9.79,0.00,0.00,1.44,17.81,0.00,3.28,1.61,3.22,0.00,0.00,0.11
0,12.08,0.00,0.00,1.62,16.70,0.00,0.00,2.78,25.34,0.00,0.00,5.25,15.30,0.00,21.92,2.52,0.00,0.00,0.00,0.00,9.66,0.00,0.00,1.39,17.53,0.00,3.28,1.59,3.30,0.00,0.00,0.12
0,12.40,0.00,0.00,1.65,16.29,0.00,0.00,2.75,25.58,0.00,0.00,5.29,14.85,0.00,20.55,2.30,0.00,0.00,0.00,0.00,9.65,0.00,0.00,1.43,17.61,0.00,3.28,1.58,3.45,0.00,0.00,0.12
0,12.03,0.00,0.00,1.53,16.54,0.00,0.00,2.85,24.33,0.00,0.00,4.94,14.72,0.00,20.55,2.22,0.00,0.00,0.00,0.00,9.57,0.00,0.00,1.43,17.48,0.00,3.28,1.62,3.27,0.00,0.00,0.11
0,11.69,0.00,0.00,1.46,16.47,0.00,0.00,2.84,24.04,0.00,0.00,4.91,14.82,0.00,20.55,2.25,0.00,0.00,0.00,0.00,9.70,0.00,0.00,1.45,17.48,0.00,3.28,1.68,3.31,0.00,0.00,0.11
0,11.91,0.00,0.00,1.59,16.66,0.00,0.00,2.86,23.79,0.00,0.00,4.77,14.88,0.00,19.18,2.22,0.00,0.00,0.00,0.00,9.89,0.00,0.00,1.49,17.01,0.00,1.64,1.57,3.44,0.00,0.00,0.12
0,12.29,0.00,0.00,1.65,16.38,0.00,0.00,2.85,23.95,0.00,0.00,4.81,14.81,0.00,19.18,2.20,0.00,0.00,0.00,0.00,9.52,0.00,0.00,1.43,16.40,0.00,1.64,1.50,3.30,0.00,0.00,0.11
0,12.19,0.00,0.00,1.60,16.35,0.00,0.00,2.83,24.30,0.00,0.00,4.75,14.63,0.00,17.81,2.13,0.00,0.00,0.00,0.00,9.47,0.00,0.00,1.42,16.32,0.00,1.64,1.50,3.32,0.00,0.00,0.12
0,12.37,0.00,0.00,1.60,16.68,0.00,0.00,2.93,24.12,0.00,0.00,4.66,14.61,0.00,17.81,2.11,0.00,0.00,0.00,0.00,9.30,0.00,0.00,1.37,16.38,0.00,1.64,1.51,3.31,0.00,0.00,0.11
0,12.43,0.00,0.00,1.50,17.29,0.00,0.00,3.09,24.00,0.00,0.00,4.59,13.79,0.00,15.07,1.87,0.00,0.00,0.00,0.00,9.48,0.00,0.00,1.44,16.71,0.00,1.64,1.55,3.25,0.00,0.00,0.11
0,11.97,0.00,0.00,1.37,17.32,0.00,0.00,3.08,24.00,0.00,0.00,4.46,14.41,0.00,17.81,1.99,0.00,0.00,0.00,0.00,9.62,0.00,0.00,1.46,17.29,0.00,1.64,1.60,3.23,0.00,0.00,0.11
0,12.06,0.00,0.00,1.38,17.67,0.00,0.00,3.09,23.88,0.00,0.00,4.53,14.02,0.00,15.07,1.95,0.00,0.00,0.00,0.00,9.96,0.00,0.00,1.54,16.61,0.00,1.64,1.49,3.24,0.00,0.00,0.11
0,11.97,0.00,0.00,1.39,17.43,0.00,0.00,3.08,23.56,0.00,0.00,4.41,14.36,0.00,15.07,2.04,0.00,0.00,0.00,0.00,9.99,0.00,0.00,1.49,16.71,0.00,1.64,1.47,3.19,0.00,0.00,0.10
0,11.83,0.00,0.00,1.37,16.87,0.00,0.00,2.90,23.32,0.00,0.00,4.05,14.04,0.00,15.07,1.92,0.00,0.00,0.00,0.00,10.14,0.00,0.00,1.51,16.90,0.00,1.64,1.51,3.23,0.00,0.00,0.11
0,11.88,0.00,0.00,1.43,17.09,0.00,0.00,2.91,23.29,0.00,0.00,4.09,14.43,0.00,16.44,2.10,0.00,0.00,0.00,0.00,9.48,0.00,0.00,1.40,16.32,0.00,1.64,1.40,3.26,0.00,0.00,0.11
0,12.32,0.00,0.00,1.52,17.17,0.00,0.00,2.91,22.67,0.00,0.00,3.97,14.36,0.00,15.07,2.13,0.00,0.00,0.00,0.00,9.94,0.00,0.00,1.50,16.29,0.00,1.64,1.42,3.17,0.00,0.00,0.10
0,12.60,0.00,0.00,1.53,16.99,0.00,0.00,2.93,22.51,0.00,0.00,3.98,13.90,0.00,13.70,2.04,0.00,0.00,0.00,0.00,10.02,0.00,0.00,1.53,15.73,0.00,1.64,1.37,3.25,0.00,0.00,0.10
0,12.33,0.00,0.00,1.52,16.43,0.00,0.00,2.63,23.76,0.00,0.00,4.14,14.05,0.00,13.70,2.02,0.00,0.00,0.00,0.00,9.92,0.00,0.00,1.50,15.93,0.00,1.64,1.40,3.14,0.00,0.00,0.10
0,12.90,0.00,0.00,1.64,16.70,0.00,0.00,2.72,22.88,0.00,0.00,3.90,13.90,0.00,13.70,1.95,0.00,0.00,0.00,0.00,10.38,0.00,0.00,1.56,15.96,0.00,1.64,1.37,3.10,0.00,0.00,0.10
0,12.57,0.00,0.00,1.55,16.57,0.00,0.00,2.65,22.60,0.00,0.00,3.93,13.97,0.00,13.70,2.00,0.00,0.00,0.00,0.00,9.60,0.00,0.00,1.42,15.91,0.00,0.00,1.38,3.06,0.00,0.00,0.10
0,12.31,0.00,0.00,1.51,16.99,0.00,0.00,2.77,22.53,0.00,0.00,3.71,14.04,0.00,16.44,1.94,0.00,0.00,0.00,0.00,9.40,0.00,0.00,1.38,16.57,0.00,1.64,1.48,2.97,0.00,0.00,0.09
0,12.29,0.00,0.00,1.51,16.86,0.00,0.00,2.76,22.59,0.00,0.00,3.57,13.84,0.00,15.07,1.89,0.00,0.00,0.00,0.00,9.25,0.00,0.00,1.26,16.72,0.00,1.64,1.49,3.04,0.00,0.00,0.10
0,12.52,0.00,0.00,1.53,16.60,0.00,0.00,2.72,23.31,0.00,0.00,3.87,14.14,0.00,16.44,1.94,0.00,0.00,0.00,0.00,9.58,0.00,0.00,1.37,17.05,0.00,3.28,1.51,3.05,0.00,0.00,0.10
0,12.51,0.00,0.00,1.55,17.72,0.00,0.00,3.09,23.09,0.00,0.00,3.84,14.25,0.00,16.44,1.98,0.00,0.00,0.00,0.00,9.87,0.00,0.00,1.43,17.43,0.00,3.28,1.53,2.86,0.00,0.00,0.09
0,12.64,0.00,0.00,1.59,17.32,0.00,0.00,3.01,23.96,0.00,0.00,3.99,14.13,0.00,16.44,2.00,0.00,0.00,0.00,0.00,10.10,0.00,0.00,1.47,17.79,0.00,3.28,1.63,2.90,0.00,0.00,0.10
0,12.69,0.00,0.00,1.58,17.81,0.00,0.00,3.10,24.32,0.00,0.00,4.03,14.08,0.00,15.07,2.02,0.00,0.00,0.00,0.00,9.88,0.00,0.00,1.42,17.82,0.00,3.28,1.61,2.92,0.00,0.00,0.10
0,12.50,0.00,0.00,1.56,17.15,0.00,0.00,2.93,24.16,0.00,0.00,3.96,14.21,0.00,15.07,2.00,0.00,0.00,0.00,0.00,9.75,0.00,0.00,1.40,18.04,0.00,3.28,1.56,2.79,0.00,0.00,0.09
0,11.88,0.00,0.00,1.38,16.25,0.00,0.00,2.73,23.67,0.00,0.00,3.92,13.87,0.00,12.33,1.95,0.00,0.00,0.00,0.00,10.00,0.00,0.00,1.41,18.22,0.00,3.28,1.60,2.86,0.00,0.00,0.09
0,11.72,0.00,0.00,1.36,16.70,0.00,0.00,2.82,22.88,0.00,0.00,3.83,13.89,0.00,13.70,2.00,0.00,0.00,0.00,0.00,9.98,0.00,0.00,1.41,18.42,0.00,3.28,1.64,2.91,0.00,0.00,0.09
0,11.73,0.00,0.00,1.39,16.62,0.00,0.00,2.71,22.90,0.00,0.00,3.85,14.42,0.00,16.44,2.12,0.00,0.00,0.00,0.00,10.05,0.00,0.00,1.38,19.15,0.00,3.28,1.66,2.87,0.00,0.00,0.09
1,11.99,1.27,0.00,1.58,16.45,0.00,0.00,2.59,23.15,0.00,0.00,3.82,14.58,0.00,16.44,2.14,0.00,0.00,0.00,0.00,10.35,0.00,0.00,1.37,19.71,0.00,6.56,1.73,2.90,0.00,0.00,0.10
1,15.50,5.06,2.00,4.02,16.43,0.00,0.00,2.60,23.94,0.00,0.00,4.56,14.95,0.00,17.81,2.29,0.00,0.00,0.00,0.00,12.23,2.82,0.00,2.59,20.51,0.00,11.48,1.94,2.87,0.00,0.00,0.10
1,18.04,8.86,2.00,5.62,17.16,0.00,0.00,2.80,24.57,0.00,0.00,4.65,20.42,9.76,23.29,5.43,0.00,0.00,0.00,0.00,13.13,2.82,0.00,3.13,22.13,3.12,13.11,2.21,3.23,0.00,0.00,0.13
1,21.13,12.66,4.00,7.95,18.34,0.00,2.33,3.34,24.69,0.00,0.00,4.63,23.30,14.63,27.40,7.85,0.00,0.00,0.00,0.00,14.83,5.63,0.00,4.58,23.45,3.12,18.03,2.70,4.11,0.00,0.00,0.22
1,25.46,15.19,8.00,12.03,18.68,0.00,2.33,3.42,25.72,0.00,0.00,4.88,25.97,14.63,31.51,8.95,0.00,0.00,0.00,0.00,16.43,8.45,0.00,5.24,24.44,3.12,21.31,2.92,4.55,0.00,0.00,0.34
1,31.08,18.99,14.00,18.62,19.80,0.00,2.33,3.78,26.37,0.00,0.00,5.04,29.82,19.51,35.62,12.11,0.00,0.00,0.00,0.00,20.08,12.68,1.96,8.86,25.95,3.12,24.59,3.25,5.55,0.00,0.00,0.55
1,36.10,22.78,18.00,24.79,20.67,0.00,2.33,4.37,27.25,0.00,0.00,5.17,31.24,19.51,39.73,13.00,0.00,0.00,0.00,0.00,23.24,16.90,5.88,11.61,26.86,3.12,26.23,3.51,6.00,0.00,0.00,0.60
1,41.87,27.85,24.00,30.87,21.46,0.00,2.33,4.49,28.29,0.00,0.00,5.84,35.20,24.39,42.47,15.64,0.00,0.00,0.00,0.00,25.46,19.72,9.80,14.32,29.08,6.25,31.15,4.48,7.24,0.00,0.00,1.10
1,45.68,30.38,28.00,33.43,21.81,0.00,2.33,4.60,28.98,0.00,0.00,6.32,41.57,29.27,47.95,25.22,0.00,0.00,0.00,0.00,27.83,21.13,9.80,16.02,30.59,6.25,34.43,4.86,7.92,0.00,0.00,1.17
1,49.34,32.91,30.00,38.93,21.80,0.00,2.33,4.65,29.38,0.00,0.00,6.59,41.87,29.27,47.95,25.47,0.00,0.00,0.00,0.00,28.60,21.13,9.80,16.52,31.12,6.25,34.43,5.01,8.09,0.00,0.00,1.19
1,55.10,37.97,34.00,44.82,22.23,0.00,2.33,4.82,30.04,0.00,0.00,6.71,43.57,29.27,53.42,26.17,0.00,0.00,0.00,0.00,29.45,21.13,9.80,16.82,32.79,9.38,37.70,5.56,8.34,0.00,0.00,1.21
1,57.92,40.51,36.00,47.94,22.79,0.00,2.33,4.96,30.87,0.00,0.00,7.13,45.13,29.27,54.79,26.98,0.00,0.00,0.00,0.00,31.52,23.94,9.80,17.69,33.13,9.38,39.34,5.66,8.53,0.00,0.00,1.25
1,61.63,44.30,42.00,52.18,22.82,0.00,2.33,4.99,31.39,0.00,0.00,7.19,45.94,29.27,56.16,27.21,0.00,0.00,0.00,0.00,33.80,26.76,9.80,18.67,33.76,9.38,40.98,5.78,8.71,0.00,0.00,1.27
1,65.87,48.10,46.00,56.16,22.83,0.00,2.33,4.98,31.43,0.00,0.00,7.05,48.83,31.71,60.27,29.69,0.00,0.00,0.00,0.00,37.05,32.39,11.76,23.14,34.09,9.38,42.62,5.82,8.78,0.00,0.00,1.27
1,69.17,50.63,48.00,57.84,22.42,0.00,2.33,4.96,31.31,0.00,0.00,7.05,50.37,31.71,65.75,30.17,0.00,0.00,0.00,0.00,38.15,35.21,11.76,24.15,34.71,9.38,42.62,6.03,8.89,0.00,0.00,1.28
1,76.46,56.96,58.00,65.48,22.15,0.00,2.33,4.64,31.37,0.00,0.00,7.09,52.13,34.15,68.49,31.06,0.00,0.00,0.00,0.00,40.02,36.62,11.76,25.59,35.76,9.38,47.54,6.26,9.04,0.00,0.00,1.30
1,82.55,62.03,68.00,71.19,22.91,0.00,2.33,4.89,31.95,0.00,0.00,7.28,53.24,34.15,72.60,31.85,0.00,0.00,0.00,0.00,42.39,39.44,11.76,27.09,36.35,9.38,49.18,6.29,9.23,0.00,0.00,1.31
1,87.19,65.82,70.00,76.86,22.62,0.00,2.33,4.86,32.34,0.00,0.00,7.44,54.59,34.15,75.34,32.56,0.00,0.00,0.00,0.00,45.46,43.66,11.76,30.88,36.99,9.38,49.18,6.58,9.41,0.00,0.00,1.34
1,90.80,70.89,76.00,79.86,23.16,0.00,2.33,4.98,32.25,0.00,0.00,7.33,58.27,36.59,83.56,33.92,0.00,0.00,0.00,0.00,46.56,45.07,11.76,31.50,37.54,9.38,52.46,6.70,9.57,0.00,0.00,1.35
1,95.03,73.42,78.00,85.37,23.15,0.00,2.33,4.93,34.08,0.00,0.00,7.84,59.19,36.59,83.56,34.43,0.00,0.00,0.00,0.00,47.40,46.48,11.76,32.08,37.84,9.38,52.46,6.67,9.68,0.00,0.00,1.36
1,99.31,77.22,82.00,89.44,23.14,0.00,2.33,5.07,34.60,0.00,0.00,8.01,59.55,36.59,84.93,34.46,0.00,0.00,0.00,0.00,50.10,52.11,13.73,33.47,39.37,9.38,55.74,7.31,9.87,0.00,0.00,1.38
1,105.30,81.01,88.00,97.43,22.93,0.00,2.33,5.13,35.33,0.00,0.00,8.09,60.06,36.59,86.30,34.57,0.00,0.00,0.00,0.00,50.83,53.52,13.73,34.80,38.42,9.38,52.46,7.20,9.99,0.00,0.00,1.39
1,103.68,79.75,88.00,96.56,23.33,0.00,2.33,5.21,34.88,0.00,0.00,7.59,59.66,36.59,83.56,34.73,0.00,0.00,0.00,0.00,51.07,54.93,13.73,34.98,38.22,9.38,50.82,7.29,10.00,0.00,0.00,1.39
1,104.77,78.48,90.00,98.41,22.59,0.00,2.33,4.96,35.40,0.00,0.00,7.62,57.09,29.27,83.56,32.85,0.00,0.00,0.00,0.00,51.23,56.34,13.73,34.93,38.55,9.38,50.82,7.31,9.85,0.00,0.00,1.38
1,104.65,77.22,90.00,99.41,20.91,0.00,0.00,4.37,34.62,0.00,0.00,7.49,55.75,26.83,83.56,31.37,0.00,0.00,0.00,0.00,49.42,53.52,13.73,33.51,36.58,6.25,45.90,6.67,9.51,0.00,0.00,1.32
1,103.32,77.22,90.00,97.55,20.57,0.00,0.00,4.22,34.42,0.00,0.00,7.36,54.77,26.83,84.93,30.68,0.00,0.00,0.00,0.00,49.07,53.52,13.73,33.32,35.38,6.25,40.98,6.48,8.73,0.00,0.00,1.19
1,101.51,79.75,86.00,94.58,19.74,0.00,0.00,4.04,33.90,0.00,0.00,7.13,51.48,24.39,79.45,29.12,0.00,0.00,0.00,0.00,49.20,50.70,13.73,32.91,33.97,6.25,37.70,6.26,8.26,0.00,0.00,1.09
1,101.96,79.75,86.00,96.79,19.03,0.00,0.00,3.38,32.98,0.00,0.00,7.12,50.25,21.95,78.08,27.37,0.00,0.00,0.00,0.00,46.50,47.89,9.80,30.33,33.64,6.25,37.70,6.02,7.61,0.00,0.00,0.95
1,102.06,79.75,88.00,95.42,18.85,0.00,0.00,3.40,32.16,0.00,0.00,6.75,47.47,19.51,75.34,26.07,0.00,0.00,0.00,0.00,44.39,43.66,3.92,27.76,32.11,3.12,36.07,5.18,6.56,0.00,0.00,0.45
1,100.42,79.75,84.00,93.62,18.57,0.00,0.00,3.32,30.30,0.00,0.00,5.72,40.26,12.20,69.86,15.91,0.00,0.00,0.00,0.00,42.66,43.66,3.92,26.41,30.43,3.12,31.15,4.77,5.96,0.00,0.00,0.38
1,101.36,82.28,90.00,92.43,18.41,0.00,0.00,3.28,29.27,0.00,0.00,5.36,40.64,12.20,69.86,14.88,0.00,0.00,0.00,0.00,43.86,49.30,3.92,27.12,29.58,3.12,31.15,4.67,5.79,0.00,0.00,0.36
1,101.01,83.54,90.00,91.33,18.40,0.00,0.00,3.07,29.28,0.00,0.00,5.35,39.41,12.20,64.38,14.48,0.00,0.00,0.00,0.00,43.89,49.30,3.92,27.15,28.34,3.12,29.51,4.32,5.75,0.00,0.00,0.35
1,99.59,82.28,88.00,89.30,17.57,0.00,0.00,2.82,28.39,0.00,0.00,5.11,40.30,14.63,64.38,15.34,0.00,0.00,0.00,0.00,42.88,46.48,3.92,26.54,27.17,0.00,26.23,3.91,5.64,0.00,0.00,0.32
1,99.36,84.81,84.00,87.06,17.77,0.00,0.00,2.87,27.89,0.00,0.00,4.99,40.06,14.63,67.12,15.00,0.00,0.00,0.00,0.00,41.59,43.66,3.92,26.17,26.62,0.00,24.59,3.80,5.92,0.00,0.00,0.36
1,99.22,84.81,82.00,86.19,17.69,0.00,0.00,2.85,27.87,0.00,0.00,5.03,39.18,14.63,63.01,14.19,0.00,0.00,0.00,0.00,38.99,39.44,1.96,22.77,26.57,0.00,22.95,3.82,5.76,0.00,0.00,0.34
1,97.22,83.54,80.00,85.96,17.85,0.00,0.00,2.85,27.35,0.00,0.00,4.99,39.15,14.63,60.27,14.14,0.00,0.00,0.00,0.00,38.46,35.21,1.96,21.01,25.63,0.00,21.31,3.60,5.70,0.00,0.00,0.33
1,95.08,83.54,76.00,84.24,18.06,0.00,0.00,2.92,27.84,0.00,0.00,5.30,38.27,12.20,60.27,13.52,0.00,0.00,0.00,0.00,38.46,36.62,1.96,20.75,24.16,0.00,16.39,3.25,5.77,0.00,0.00,0.33
1,92.08,82.28,68.00,82.20,17.92,0.00,0.00,2.90,27.61,0.00,0.00,5.07,37.09,12.20,57.53,12.96,0.00,0.00,0.00,0.00,36.61,33.80,1.96,19.51,23.78,0.00,16.39,3.19,5.67,0.00,0.00,0.31
1,90.51,79.75,66.00,81.76,17.54,0.00,0.00,2.77,26.50,0.00,0.00,4.84,36.48,12.20,57.53,12.20,0.00,0.00,0.00,0.00,35.66,32.39,1.96,17.42,22.51,0.00,14.75,2.92,5.43,0.00,0.00,0.28
1,89.29,77.22,64.00,80.54,17.77,0.00,0.00,2.80,27.84,0.00,0.00,5.62,34.59,9.76,54.79,11.69,0.00,0.00,0.00,0.00,34.77,29.58,1.96,16.41,22.41,0.00,11.48,2.85,5.28,0.00,0.00,0.27
1,90.16,81.01,70.00,78.28,18.05,0.00,0.00,2.95,26.97,0.00,0.00,5.38,33.63,9.76,53.42,11.24,0.00,0.00,0.00,0.00,35.72,32.39,1.96,16.86,22.65,0.00,11.48,2.99,5.32,0.00,0.00,0.28
1,86.56,75.95,66.00,73.59,18.10,0.00,0.00,2.97,27.23,0.00,0.00,5.49,32.93,9.76,49.32,11.15,0.00,0.00,0.00,0.00,34.74,29.58,1.96,16.23,20.89,0.00,8.20,2.46,5.18,0.00,0.00,0.27
1,86.06,79.75,64.00,69.22,18.15,0.00,0.00,2.91,26.52,0.00,0.00,5.54,32.79,9.76,49.32,11.09,0.00,0.00,0.00,0.00,33.56,26.76,0.00,15.12,20.73,0.00,8.20,2.43,5.09,0.00,0.00,0.26
1,89.20,82.28,70.00,72.67,17.75,0.00,0.00,2.89,25.38,0.00,0.00,5.36,34.34,14.63,50.68,12.12,0.00,0.00,0.00,0.00,33.68,25.35,0.00,14.53,20.13,0.00,6.56,2.30,5.15,0.00,0.00,0.26
1,89.85,84.81,70.00,72.49,17.88,0.00,0.00,2.93,25.46,0.00,0.00,5.34,33.35,12.20,46.58,12.04,0.00,0.00,0.00,0.00,36.07,26.76,1.96,18.42,20.71,0.00,8.20,2.33,5.25,0.00,0.00,0.27
1,91.40,86.08,70.00,73.27,18.03,0.00,0.00,3.00,25.10,0.00,0.00,5.28,33.38,12.20,47.95,11.66,0.00,0.00,0.00,0.00,37.40,29.58,1.96,18.68,19.65,0.00,8.20,2.23,5.21,0.00,0.00,0.26
1,92.83,87.34,70.00,73.63,17.66,0.00,0.00,2.94,24.68,0.00,0.00,5.26,32.60,12.20,43.84,11.42,0.00,0.00,0.00,0.00,37.65,29.58,1.96,19.26,19.66,0.00,8.20,2.26,5.32,0.00,0.00,0.27
1,92.53,87.34,72.00,73.25,17.56,0.00,0.00,2.93,24.36,0.00,0.00,5.33,33.74,14.63,45.21,12.25,0.00,0.00,0.00,0.00,36.39,26.76,1.96,18.24,19.94,0.00,9.84,2.32,5.34,0.00,0.00,0.27
1,92.83,87.34,74.00,73.39,17.18,0.00,0.00,2.89,23.70,0.00,0.00,5.10,33.80,14.63,45.21,12.29,0.00,0.00,0.00,0.00,35.00,25.35,1.96,16.66,20.58,0.00,11.48,2.35,5.45,0.00,0.00,0.28
1,91.11,87.34,72.00,70.92,17.46,0.00,0.00,2.97,23.77,0.00,0.00,5.16,33.59,14.63,43.84,12.17,0.00,0.00,0.00,0.00,34.55,25.35,1.96,16.32,19.96,0.00,9.84,2.33,5.26,0.00,0.00,0.28
1,90.43,87.34,72.00,69.22,16.82,0.00,0.00,2.82,24.88,2.56,0.00,5.80,34.54,14.63,46.58,12.65,0.00,0.00,0.00,0.00,34.02,23.94,1.96,15.92,20.02,0.00,9.84,2.32,5.28,0.00,0.00,0.28
1,86.65,83.54,68.00,65.83,16.78,0.00,0.00,2.82,26.06,2.56,0.00,6.26,32.82,14.63,43.84,12.14,0.00,0.00,0.00,0.00,32.77,21.13,1.96,15.20,20.22,0.00,9.84,2.31,5.24,0.00,0.00,0.28
1,84.39,81.01,68.00,64.28,16.49,0.00,0.00,2.75,26.34,2.56,0.00,6.38,33.19,14.63,45.21,12.28,0.00,0.00,0.00,0.00,33.08,21.13,1.96,15.38,20.49,0.00,9.84,2.33,5.07,0.00,0.00,0.27
1,85.76,82.28,70.00,65.62,16.12,0.00,0.00,2.71,27.08,2.56,0.00,7.12,30.29,12.20,41.10,10.49,0.00,0.00,0.00,0.00,34.34,25.35,3.92,16.32,20.19,0.00,8.20,2.27,5.01,0.00,0.00,0.27
1,85.81,81.01,72.00,66.36,15.70,0.00,0.00,2.59,27.63,2.56,0.00,7.28,30.98,12.20,41.10,11.13,0.00,0.00,0.00,0.00,34.27,26.76,3.92,16.15,20.32,0.00,8.20,2.28,4.71,0.00,0.00,0.22
1,85.77,79.75,72.00,67.82,15.38,0.00,0.00,2.53,27.92,2.56,0.00,7.45,31.25,12.20,42.47,11.23,0.00,0.00,0.00,0.00,35.38,29.58,5.88,16.95,20.34,0.00,8.20,2.27,4.78,0.00,0.00,0.22
1,89.26,84.81,82.00,69.05,15.29,0.00,0.00,2.53,27.67,2.56,0.00,7.33,28.60,9.76,39.73,9.54,0.00,0.00,0.00,0.00,34.87,29.58,5.88,16.88,20.26,0.00,8.20,2.25,4.68,0.00,0.00,0.22
1,89.31,84.81,80.00,68.73,15.38,0.00,0.00,2.56,28.12,2.56,0.00,7.27,27.55,9.76,39.73,9.08,0.00,0.00,0.00,0.00,34.44,28.17,5.88,16.89,21.33,0.00,11.48,2.54,4.55,0.00,0.00,0.21
1,89.59,84.81,82.00,67.14,15.51,0.00,0.00,2.55,28.08,2.56,0.00,7.32,28.83,12.20,41.10,10.00,0.00,0.00,0.00,0.00,35.54,30.99,5.88,16.84,21.50,0.00,11.48,2.51,4.47,0.00,0.00,0.20
1,91.71,87.34,84.00,69.97,15.73,0.00,0.00,2.56,29.41,2.56,0.00,8.22,29.19,12.20,42.47,10.20,0.00,0.00,0.00,0.00,36.36,33.80,5.88,18.00,22.27,0.00,14.75,2.63,4.49,0.00,0.00,0.21
1,92.20,87.34,84.00,70.54,15.32,0.00,0.00,2.55,29.75,2.56,0.00,9.09,28.80,12.20,39.73,10.02,0.00,0.00,0.00,0.00,36.12,33.80,5.88,17.67,21.54,0.00,14.75,2.57,4.49,0.00,0.00,0.21
1,91.12,84.81,78.00,71.75,15.15,0.00,0.00,2.40,29.62,2.56,0.00,8.97,29.08,12.20,41.10,10.39,0.00,0.00,0.00,0.00,35.86,32.39,5.88,17.37,20.92,0.00,14.75,2.36,4.40,0.00,0.00,0.20
1,95.24,91.14,84.00,74.48,15.00,0.00,0.00,2.30,28.90,2.56,0.00,8.98,29.39,12.20,43.84,10.56,0.00,0.00,0.00,0.00,36.96,33.80,5.88,18.52,21.64,0.00,14.75,2.39,4.22,0.00,0.00,0.19
1,96.14,92.41,90.00,75.20,15.49,0.00,0.00,2.44,29.48,2.56,0.00,9.60,30.10,12.20,45.21,10.95,0.00,0.00,0.00,0.00,36.86,33.80,5.88,18.59,22.05,0.00,14.75,2.45,4.26,0.00,0.00,0.19
1,95.79,91.14,84.00,74.62,15.52,0.00,0.00,2.32,30.83,2.56,0.00,10.22,27.68,7.32,41.10,9.55,0.00,0.00,0.00,0.00,37.17,32.39,5.88,18.79,22.28,0.00,13.11,2.40,4.16,0.00,0.00,0.19
1,96.43,89.87,86.00,75.41,15.53,0.00,0.00,2.34,31.30,2.56,0.00,10.34,27.50,7.32,41.10,9.21,0.00,0.00,0.00,0.00,35.04,29.58,5.88,16.84,22.35,0.00,14.75,2.45,4.14,0.00,0.00,0.19
1,94.83,89.87,88.00,73.21,15.31,0.00,0.00,2.24,31.72,2.56,0.00,10.37,27.58,7.32,39.73,9.53,0.00,0.00,0.00,0.00,33.24,26.76,3.92,14.57,22.39,0.00,13.11,2.43,3.86,0.00,0.00,0.16
1,98.04,92.41,92.00,75.65,15.29,0.00,0.00,2.23,32.06,2.56,0.00,10.54,25.71,4.88,36.99,8.27,0.00,0.00,0.00,0.00,32.45,25.35,3.92,13.67,22.99,0.00,13.11,2.51,3.86,0.00,0.00,0.17
1,98.40,91.14,92.00,78.18,15.35,0.00,0.00,2.23,32.72,2.56,0.00,10.73,26.63,4.88,38.36,8.96,0.00,0.00,0.00,0.00,32.81,25.35,3.92,13.89,22.55,0.00,11.48,2.39,3.90,0.00,0.00,0.17
1,97.79,89.87,92.00,76.68,15.00,0.00,0.00,2.14,33.51,2.56,0.00,11.30,24.36,2.44,34.25,7.53,0.00,0.00,0.00,0.00,33.22,26.76,3.92,14.24,22.15,0.00,9.84,2.31,3.68,0.00,0.00,0.15
1,99.52,91.14,98.00,76.91,14.91,0.00,0.00,2.04,33.76,2.56,0.00,11.46,26.43,4.88,38.36,8.48,0.00,0.00,0.00,0.00,35.97,32.39,3.92,15.71,21.85,0.00,8.20,2.25,3.56,0.00,0.00,0.14
1,101.18,92.41,98.00,79.14,15.25,0.00,0.00,2.12,32.94,0.00,0.00,11.00,26.39,4.88,39.73,8.52,0.00,0.00,0.00,0.00,37.99,35.21,5.88,16.86,21.67,0.00,8.20,2.21,3.44,0.00,0.00,0.13
1,101.51,93.67,100.00,78.93,15.61,0.00,0.00,2.24,32.01,0.00,0.00,10.61,26.66,4.88,39.73,8.66,0.00,0.00,0.00,0.00,39.34,38.03,7.84,18.74,21.57,0.00,8.20,2.20,3.45,0.00,0.00,0.13
1,103.56,93.67,98.00,82.50,15.59,0.00,0.00,2.29,31.74,0.00,0.00,10.46,27.89,4.88,43.84,9.01,0.00,0.00,0.00,0.00,40.34,39.44,7.84,20.24,22.15,0.00,8.20,2.28,3.46,0.00,0.00,0.14
1,103.18,91.14,100.00,81.71,15.72,0.00,0.00,2.27,31.50,0.00,0.00,9.98,28.70,4.88,45.21,9.25,0.00,0.00,0.00,0.00,38.64,35.21,5.88,19.53,22.11,0.00,8.20,2.26,3.45,0.00,0.00,0.14
1,104.80,92.41,100.00,85.76,16.20,0.00,0.00,2.34,31.10,0.00,0.00,10.11,27.66,4.88,42.47,8.60,0.00,0.00,0.00,0.00,38.57,33.80,5.88,19.52,22.29,0.00,8.20,2.29,3.39,0.00,0.00,0.13
1,102.85,91.14,98.00,82.64,16.43,0.00,0.00,2.39,31.02,0.00,0.00,10.16,29.37,9.76,43.84,10.21,0.00,0.00,0.00,0.00,38.32,32.39,3.92,19.86,22.22,0.00,8.20,2.26,3.35,0.00,0.00,0.13
1,101.53,88.61,94.00,81.13,16.51,0.00,0.00,2.37,32.41,2.56,0.00,11.03,29.12,9.76,42.47,10.14,0.00,0.00,0.00,0.00,39.93,36.62,3.92,20.52,22.56,0.00,9.84,2.38,3.44,0.00,0.00,0.14
1,100.65,87.34,94.00,82.29,16.15,0.00,0.00,2.30,33.09,2.56,0.00,11.94,30.66,9.76,43.84,11.12,0.00,0.00,0.00,0.00,40.08,38.03,3.92,20.51,22.02,0.00,6.56,2.15,3.44,0.00,0.00,0.14
1,101.93,88.61,92.00,84.07,15.81,0.00,0.00,2.22,34.01,5.13,0.00,13.10,30.97,7.32,45.21,11.09,0.00,0.00,0.00,0.00,40.59,39.44,3.92,21.23,22.31,0.00,8.20,2.27,3.46,0.00,0.00,0.14
1,99.77,87.34,92.00,82.30,15.92,0.00,0.00,2.20,33.85,5.13,0.00,13.17,30.49,7.32,42.47,10.79,0.00,0.00,0.00,0.00,39.04,36.62,3.92,20.19,21.97,0.00,4.92,2.25,3.53,0.00,0.00,0.15
1,98.15,89.87,88.00,76.95,15.92,0.00,0.00,2.20,33.15,5.13,0.00,12.32,31.02,7.32,43.84,11.17,0.00,0.00,0.00,0.00,38.27,35.21,3.92,19.55,22.05,0.00,6.56,2.25,3.55,0.00,0.00,0.15
1,96.27,87.34,88.00,76.35,15.90,0.00,0.00,2.22,34.12,5.13,0.00,12.80,31.24,7.32,42.47,11.35,0.00,0.00,0.00,0.00,39.14,38.03,3.92,20.18,21.96,0.00,6.56,2.24,3.54,0.00,0.00,0.15
1,95.89,86.08,86.00,77.39,15.43,0.00,0.00,2.13,34.34,5.13,0.00,12.57,31.08,7.32,43.84,11.16,0.00,0.00,0.00,0.00,38.92,39.44,5.88,20.12,21.95,0.00,6.56,2.29,3.62,0.00,0.00,0.15
1,92.59,79.75,78.00,75.36,14.95,0.00,0.00,1.96,33.54,5.13,0.00,11.87,31.29,7.32,45.21,11.07,0.00,0.00,0.00,0.00,40.35,40.85,5.88,20.53,21.55,0.00,6.56,2.21,3.61,0.00,0.00,0.15
1,93.86,81.01,78.00,78.34,14.56,0.00,0.00,1.91,33.96,5.13,0.00,11.54,31.42,7.32,46.58,11.07,0.00,0.00,0.00,0.00,40.52,40.85,5.88,21.52,21.20,0.00,6.56,2.15,3.52,0.00,0.00,0.15
1,94.17,82.28,82.00,75.88,14.59,0.00,0.00,1.89,33.38,5.13,0.00,11.48,31.35,7.32,45.21,10.98,0.00,0.00,0.00,0.00,41.09,40.85,5.88,21.74,20.95,0.00,6.56,2.11,3.63,0.00,0.00,0.15
1,95.39,82.28,80.00,80.21,14.32,0.00,0.00,1.87,32.72,5.13,0.00,11.34,32.26,7.32,47.95,11.83,0.00,0.00,0.00,0.00,41.24,40.85,5.88,21.73,21.14,0.00,6.56,2.09,3.78,0.00,0.00,0.16
1,95.41,79.75,82.00,82.05,14.40,0.00,0.00,1.86,32.71,5.13,0.00,11.45,32.40,7.32,47.95,11.94,0.00,0.00,0.00,0.00,41.27,40.85,5.88,21.61,20.69,0.00,6.56,1.99,3.57,0.00,0.00,0.16
1,94.91,78.48,80.00,82.59,14.32,0.00,0.00,1.88,33.18,5.13,0.00,11.72,32.11,7.32,49.32,11.65,0.00,0.00,0.00,0.00,41.58,40.85,5.88,21.77,20.19,0.00,6.56,1.93,3.72,0.00,0.00,0.16
1,91.77,75.95,74.00,79.45,14.45,0.00,0.00,1.89,31.98,5.13,0.00,11.13,32.10,7.32,49.32,11.60,0.00,0.00,0.00,0.00,41.88,42.25,5.88,21.82,20.23,0.00,8.20,1.96,3.76,0.00,0.00,0.16
1,90.60,75.95,72.00,79.13,14.53,0.00,0.00,1.98,32.48,5.13,0.00,11.04,31.13,4.88,46.58,11.64,0.00,0.00,0.00,0.00,41.10,38.03,7.84,21.77,20.25,0.00,8.20,1.99,3.77,0.00,0.00,0.16
1,90.58,74.68,74.00,78.65,14.45,0.00,0.00,1.93,32.30,5.13,0.00,10.81,29.15,4.88,42.47,10.38,0.00,0.00,0.00,0.00,39.98,38.03,7.84,20.82,20.27,0.00,9.84,1.97,3.73,0.00,0.00,0.15
1,91.37,75.95,72.00,79.54,14.43,0.00,0.00,1.90,32.44,5.13,0.00,10.78,29.93,4.88,43.84,10.41,0.00,0.00,0.00,0.00,37.45,32.39,3.92,18.45,21.64,0.00,14.75,2.19,3.72,0.00,0.00,0.15
1,89.12,74.68,70.00,75.78,14.65,0.00,0.00,1.92,32.69,5.13,0.00,10.82,30.27,4.88,43.84,10.63,0.00,0.00,0.00,0.00,36.02,32.39,3.92,17.00,21.88,0.00,14.75,2.18,3.92,0.00,0.00,0.17
1,87.53,73.42,68.00,75.34,14.63,0.00,0.00,1.93,33.33,7.69,0.00,11.50,29.76,4.88,43.84,10.39,0.00,0.00,0.00,0.00,36.46,32.39,3.92,17.65,21.78,0.00,16.39,2.19,3.91,0.00,0.00,0.16
1,88.62,77.22,76.00,74.78,14.83,0.00,0.00,1.94,33.27,7.69,0.00,11.74,29.51,4.88,43.84,10.38,0.00,0.00,0.00,0.00,37.34,33.80,3.92,17.96,21.73,0.00,16.39,2.18,3.84,0.00,0.00,0.16
1,88.42,81.01,76.00,73.48,14.75,0.00,0.00,2.05,33.26,7.69,0.00,12.05,28.48,0.00,43.84,9.26,0.00,0.00,0.00,0.00,37.35,33.80,3.92,17.92,22.80,0.00,18.03,2.46,3.87,0.00,0.00,0.16
1,88.41,81.01,78.00,73.07,15.02,0.00,0.00,2.13,32.62,5.13,0.00,11.50,28.48,0.00,43.84,9.08,0.00,0.00,0.00,0.00,35.72,29.58,3.92,16.26,22.26,0.00,16.39,2.37,3.88,0.00,0.00,0.15
1,87.79,82.28,76.00,72.12,15.30,0.00,0.00,2.22,32.06,5.13,0.00,11.03,27.60,0.00,42.47,8.63,0.00,0.00,0.00,0.00,36.31,32.39,5.88,17.57,22.22,0.00,16.39,2.40,4.11,0.00,0.00,0.18
1,88.19,84.81,82.00,70.52,15.38,0.00,0.00,2.32,31.89,2.56,0.00,10.48,25.96,0.00,38.36,7.56,0.00,0.00,0.00,0.00,36.47,32.39,5.88,17.75,21.65,0.00,14.75,2.29,4.19,0.00,0.00,0.18
1,86.31,81.01,78.00,68.61,15.63,0.00,0.00,2.37,32.01,2.56,0.00,10.00,25.68,0.00,38.36,7.39,0.00,0.00,0.00,0.00,36.19,30.99,5.88,17.52,21.81,0.00,14.75,2.30,4.16,0.00,0.00,0.18
1,89.40,83.54,82.00,71.59,15.30,0.00,0.00,2.28,31.48,2.56,0.00,9.58,25.25,0.00,36.99,7.17,0.00,0.00,0.00,0.00,37.09,30.99,5.88,17.61,21.59,0.00,13.11,2.23,4.14,0.00,0.00,0.17
1,90.40,86.08,88.00,70.10,15.09,0.00,0.00,2.19,31.59,2.56,0.00,9.86,24.58,0.00,35.62,6.75,0.00,0.00,0.00,0.00,37.80,30.99,7.84,18.98,21.60,0.00,13.11,2.23,4.20,0.00,0.00,0.18
1,90.57,86.08,88.00,69.38,15.21,0.00,0.00,2.24,31.16,2.56,0.00,9.86,24.76,0.00,34.25,6.93,0.00,0.00,0.00,0.00,35.92,25.35,5.88,17.23,21.29,0.00,14.75,2.20,4.17,0.00,0.00,0.17
1,92.30,89.87,92.00,70.63,15.09,0.00,0.00,2.22,32.29,2.56,0.00,10.28,24.14,0.00,31.51,6.85,0.00,0.00,0.00,0.00,35.27,25.35,5.88,17.27,21.19,0.00,14.75,2.16,4.35,0.00,0.00,0.18
1,92.29,91.14,92.00,69.73,15.07,0.00,0.00,2.34,31.60,2.56,0.00,10.36,24.04,0.00,32.88,6.85,0.00,0.00,0.00,0.00,35.79,26.76,7.84,17.26,21.31,0.00,14.75,2.24,4.31,0.00,0.00,0.18
1,89.30,87.34,88.00,68.62,15.05,0.00,0.00,2.29,31.69,2.56,0.00,10.39,24.12,0.00,32.88,6.79,0.00,0.00,0.00,0.00,35.08,26.76,7.84,16.66,21.04,0.00,13.11,2.22,4.25,0.00,0.00,0.18
1,86.14,87.34,86.00,63.38,15.51,0.00,0.00,2.47,32.29,2.56,0.00,10.68,24.81,4.88,34.25,7.24,0.00,0.00,0.00,0.00,36.07,30.99,7.84,18.02,21.04,0.00,13.11,2.23,4.25,0.00,0.00,0.18
1,83.51,84.81,82.00,60.13,15.62,0.00,0.00,2.58,32.33,2.56,0.00,10.60,24.70,4.88,34.25,7.01,0.00,0.00,0.00,0.00,36.98,33.80,7.84,18.39,21.12,0.00,13.11,2.25,4.25,0.00,0.00,0.18
1,82.75,84.81,84.00,57.67,15.51,0.00,0.00,2.58,31.89,2.56,0.00,10.44,25.81,4.88,36.99,7.19,0.00,0.00,0.00,0.00,38.13,38.03,7.84,19.41,21.43,0.00,13.11,2.30,4.19,0.00,0.00,0.18
1,84.89,87.34,86.00,60.24,15.85,0.00,0.00,2.65,32.28,2.56,0.00,10.55,26.39,4.88,39.73,7.56,0.00,0.00,0.00,0.00,37.64,36.62,7.84,19.08,21.76,0.00,11.48,2.36,4.29,0.00,0.00,0.19
1,84.31,87.34,82.00,59.03,15.84,0.00,0.00,2.59,32.13,2.56,0.00,10.57,26.18,4.88,38.36,7.50,0.00,0.00,0.00,0.00,37.10,36.62,5.88,18.84,21.97,0.00,13.11,2.34,4.22,0.00,0.00,0.19
1,85.25,88.61,84.00,59.97,15.45,0.00,0.00,2.49,33.45,2.56,0.00,11.21,26.76,4.88,41.10,7.68,0.00,0.00,0.00,0.00,37.76,38.03,5.88,18.75,21.24,0.00,11.48,2.24,4.21,0.00,0.00,0.19
1,83.52,86.08,80.00,59.14,15.25,0.00,0.00,2.47,33.83,2.56,0.00,11.38,26.22,4.88,42.47,7.45,0.00,0.00,0.00,0.00,38.73,40.85,5.88,20.03,20.30,0.00,6.56,2.17,4.22,0.00,0.00,0.19
1,82.11,86.08,78.00,57.61,15.56,0.00,0.00,2.56,33.87,2.56,0.00,11.50,25.87,4.88,39.73,7.44,0.00,0.00,0.00,0.00,38.91,42.25,5.88,19.76,20.32,0.00,8.20,2.14,4.13,0.00,0.00,0.18
1,83.13,88.61,76.00,57.74,15.05,0.00,0.00,2.50,33.68,0.00,0.00,11.40,25.10,4.88,38.36,6.97,0.00,0.00,0.00,0.00,39.59,42.25,5.88,19.73,19.86,0.00,6.56,2.04,4.26,0.00,0.00,0.19
1,82.82,86.08,72.00,59.26,14.97,0.00,0.00,2.47,34.07,0.00,0.00,11.43,27.50,7.32,45.21,8.34,0.00,0.00,0.00,0.00,38.66,40.85,5.88,18.97,19.93,0.00,6.56,2.02,4.29,0.00,0.00,0.19
1,82.26,83.54,70.00,59.59,14.55,0.00,0.00,2.32,33.15,0.00,0.00,10.79,27.53,7.32,45.21,8.21,0.00,0.00,0.00,0.00,38.79,40.85,5.88,19.03,18.44,0.00,4.92,1.71,4.30,0.00,0.00,0.19
1,81.27,81.01,66.00,59.01,14.80,0.00,0.00,2.34,33.70,0.00,0.00,10.91,27.61,7.32,46.58,8.13,0.00,0.00,0.00,0.00,39.03,42.25,5.88,19.70,18.73,0.00,4.92,1.74,4.42,0.00,0.00,0.20
1,80.70,77.22,66.00,60.14,14.18,0.00,0.00,2.21,33.53,0.00,0.00,11.07,28.39,7.32,47.95,8.14,0.00,0.00,0.00,0.00,38.15,40.85,3.92,18.85,17.74,0.00,4.92,1.59,4.26,0.00,0.00,0.18
1,82.73,74.68,64.00,66.00,13.63,0.00,0.00,2.01,33.03,0.00,0.00,11.22,29.16,7.32,49.32,8.88,0.00,0.00,0.00,0.00,38.17,39.44,3.92,18.97,17.76,0.00,4.92,1.59,4.25,0.00,0.00,0.18
1,85.50,75.95,68.00,70.19,13.03,0.00,0.00,1.89,32.29,0.00,0.00,10.90,30.93,7.32,53.42,9.36,0.00,0.00,0.00,0.00,37.43,36.62,3.92,18.34,18.10,0.00,4.92,1.62,4.22,0.00,0.00,0.18
1,83.36,73.42,68.00,68.97,12.88,0.00,0.00,1.86,32.41,0.00,0.00,11.08,31.67,7.32,56.16,9.70,0.00,0.00,0.00,0.00,37.17,36.62,3.92,18.20,18.13,0.00,4.92,1.61,4.22,0.00,0.00,0.18
1,83.58,70.89,64.00,71.08,13.43,0.00,0.00,2.00,31.64,0.00,0.00,10.70,31.47,7.32,56.16,9.54,0.00,0.00,0.00,0.00,35.83,33.80,1.96,17.02,18.43,0.00,6.56,1.66,4.18,0.00,0.00,0.18
1,82.60,72.15,62.00,69.38,13.03,0.00,0.00,1.93,32.40,0.00,0.00,10.96,29.86,7.32,52.05,8.60,0.00,0.00,0.00,0.00,36.78,36.62,1.96,17.33,18.04,0.00,4.92,1.54,4.14,0.00,0.00,0.18
1,82.60,72.15,62.00,68.86,13.64,0.00,0.00,2.03,31.73,0.00,0.00,10.99,30.00,7.32,52.05,8.67,0.00,0.00,0.00,0.00,37.29,36.62,1.96,18.19,18.65,0.00,6.56,1.60,4.07,0.00,0.00,0.18
1,83.99,70.89,62.00,72.02,13.38,0.00,0.00,1.96,32.45,0.00,0.00,11.03,32.27,9.76,54.79,10.17,0.00,0.00,0.00,0.00,36.14,36.62,0.00,16.81,18.80,0.00,8.20,1.61,4.15,0.00,0.00,0.17
1,84.97,72.15,64.00,72.76,13.16,0.00,0.00,1.93,32.13,0.00,0.00,11.06,32.82,9.76,56.16,10.37,0.00,0.00,0.00,0.00,36.09,36.62,0.00,16.67,18.24,0.00,8.20,1.54,4.26,0.00,0.00,0.18
1,85.39,72.15,64.00,73.24,12.79,0.00,0.00,1.76,31.92,0.00,0.00,10.86,34.35,12.20,54.79,11.86,0.00,0.00,0.00,0.00,35.62,35.21,0.00,15.95,18.71,0.00,9.84,1.60,4.16,0.00,0.00,0.18
1,86.95,73.42,64.00,74.76,12.63,0.00,0.00,1.73,31.64,0.00,0.00,10.98,33.12,9.76,54.79,10.68,0.00,0.00,0.00,0.00,35.60,33.80,1.96,16.10,18.77,0.00,9.84,1.59,4.31,0.00,0.00,0.18
1,86.77,74.68,66.00,73.33,12.80,0.00,0.00,1.68,31.79,0.00,0.00,10.86,34.60,9.76,56.16,11.70,0.00,0.00,0.00,0.00,36.08,35.21,1.96,16.76,18.68,0.00,9.84,1.58,4.58,0.00,0.00,0.21
1,86.92,77.22,66.00,71.97,12.99,0.00,0.00,1.68,32.46,0.00,0.00,11.06,33.63,9.76,54.79,11.28,0.00,0.00,0.00,0.00,34.60,32.39,1.96,15.98,18.73,0.00,9.84,1.61,4.41,0.00,0.00,0.19
1,85.83,75.95,64.00,70.15,14.99,0.00,0.00,2.36,32.05,0.00,0.00,10.99,33.73,9.76,54.79,11.33,0.00,0.00,0.00,0.00,34.80,32.39,1.96,16.42,19.54,0.00,9.84,1.76,4.60,0.00,0.00,0.21
1,83.33,72.15,60.00,67.84,16.90,2.22,0.00,3.70,31.68,0.00,0.00,10.61,33.63,9.76,54.79,11.20,0.00,0.00,0.00,0.00,36.38,35.21,1.96,17.74,23.20,6.25,16.39,3.14,4.67,0.00,0.00,0.21
1,82.41,72.15,58.00,67.09,17.11,2.22,0.00,3.88,32.07,0.00,0.00,10.66,33.20,9.76,52.05,11.12,0.00,0.00,0.00,0.00,36.79,35.21,1.96,17.97,24.95,6.25,21.31,3.61,4.81,0.00,0.00,0.22
1,79.72,68.35,56.00,63.84,18.40,4.44,0.00,5.29,32.09,0.00,0.00,10.55,33.09,9.76,53.42,11.08,0.00,0.00,0.00,0.00,38.00,33.80,1.96,18.82,28.10,12.50,24.59,5.05,5.08,0.00,0.00,0.28
1,79.69,70.89,56.00,62.84,21.30,6.67,2.33,8.10,31.00,0.00,0.00,9.74,33.71,9.76,54.79,11.30,0.00,0.00,0.00,0.00,38.42,33.80,5.88,21.43,32.21,15.63,32.79,7.29,5.17,0.00,0.00,0.29
1,78.73,69.62,54.00,60.38,23.26,8.89,4.65,9.41,30.66,0.00,0.00,9.76,33.29,9.76,50.68,11.44,0.00,0.00,0.00,0.00,39.01,36.62,5.88,21.60,34.44,15.63,37.70,8.06,5.16,0.00,0.00,0.29
1,78.68,69.62,52.00,58.80,26.29,11.11,9.30,11.35,31.17,0.00,0.00,9.97,31.00,7.32,47.95,9.94,0.00,0.00,0.00,0.00,38.32,36.62,5.88,21.17,35.18,15.63,39.34,8.27,5.17,0.00,0.00,0.29
1,78.82,69.62,54.00,58.71,29.29,17.78,11.63,12.85,30.92,0.00,0.00,9.91,31.10,7.32,47.95,10.17,0.00,0.00,0.00,0.00,37.89,33.80,5.88,20.67,35.02,15.63,39.34,8.24,5.25,0.00,0.00,0.29
1,79.04,73.42,56.00,56.52,31.85,20.00,16.28,14.62,30.63,0.00,0.00,9.49,30.81,7.32,47.95,10.18,0.00,0.00,0.00,0.00,38.71,35.21,5.88,21.16,36.99,18.75,42.62,8.90,5.24,0.00,0.00,0.30
1,77.92,74.68,54.00,53.39,33.82,20.00,16.28,15.23,30.53,0.00,0.00,9.09,28.97,7.32,43.84,9.32,0.00,0.00,0.00,0.00,38.70,35.21,5.88,21.24,38.25,18.75,44.26,9.51,5.20,0.00,0.00,0.30
1,76.56,75.95,54.00,48.93,34.76,20.00,16.28,15.73,31.16,0.00,0.00,9.11,28.77,7.32,41.10,9.26,0.00,0.00,0.00,0.00,38.68,36.62,5.88,21.50,38.84,18.75,45.90,9.76,5.12,0.00,0.00,0.29
1,74.73,75.95,50.00,45.88,36.80,22.22,18.60,17.03,31.11,0.00,0.00,8.97,26.97,7.32,38.36,8.77,0.00,0.00,0.00,0.00,38.34,36.62,5.88,21.46,39.70,18.75,49.18,9.96,5.11,0.00,0.00,0.29
1,72.52,74.68,44.00,43.15,37.11,22.22,18.60,17.16,31.20,0.00,0.00,8.81,27.66,7.32,39.73,9.08,0.00,0.00,0.00,0.00,38.10,36.62,5.88,21.48,40.26,18.75,47.54,10.03,5.04,0.00,0.00,0.29
1,71.85,73.42,46.00,42.72,37.85,22.22,18.60,17.32,30.58,0.00,0.00,8.47,28.01,7.32,39.73,9.35,0.00,0.00,0.00,0.00,37.58,36.62,5.88,21.49,40.76,18.75,47.54,10.19,5.00,0.00,0.00,0.29
1,68.75,68.35,40.00,41.68,38.91,22.22,18.60,17.99,30.89,0.00,0.00,8.63,27.36,7.32,38.36,9.08,0.00,0.00,0.00,0.00,36.93,33.80,5.88,19.96,41.44,18.75,50.82,10.30,5.06,0.00,0.00,0.29
1,63.96,64.56,36.00,35.49,39.28,22.22,18.60,18.10,30.91,0.00,0.00,8.75,26.61,7.32,34.25,8.89,0.00,0.00,0.00,0.00,35.12,30.99,5.88,19.12,41.08,18.75,49.18,10.21,4.99,0.00,0.00,0.29
1,60.97,63.29,32.00,32.38,40.90,22.22,18.60,18.41,30.86,0.00,0.00,8.76,24.58,4.88,32.88,7.49,0.00,0.00,0.00,0.00,34.94,30.99,5.88,19.05,41.82,18.75,49.18,10.32,4.88,0.00,0.00,0.29
1,58.56,60.76,32.00,28.42,42.07,22.22,18.60,18.82,30.51,0.00,0.00,8.63,22.78,2.44,30.14,6.47,0.00,0.00,0.00,0.00,35.02,30.99,5.88,19.03,41.53,18.75,47.54,10.30,4.77,0.00,0.00,0.28
1,56.01,58.23,28.00,26.96,42.25,22.22,18.60,18.82,30.04,0.00,0.00,8.33,23.57,2.44,31.51,6.45,0.00,0.00,0.00,0.00,32.25,26.76,3.92,17.28,41.37,18.75,47.54,10.26,4.73,0.00,0.00,0.28
1,53.83,54.43,24.00,25.62,42.51,22.22,18.60,18.94,29.71,0.00,0.00,7.99,21.10,0.00,26.03,5.30,0.00,0.00,0.00,0.00,30.35,23.94,3.92,16.19,41.82,18.75,47.54,10.30,4.57,0.00,0.00,0.26
0,52.51,51.90,24.00,24.05,43.22,22.22,18.60,19.24,28.89,0.00,0.00,7.85,19.52,0.00,23.29,4.54,0.00,0.00,0.00,0.00,30.03,23.94,3.92,15.62,42.28,18.75,47.54,10.34,4.41,0.00,0.00,0.25
0,49.90,48.10,22.00,22.48,41.90,22.22,18.60,18.84,28.11,0.00,0.00,7.66,18.95,0.00,23.29,4.39,0.00,0.00,0.00,0.00,28.90,22.54,3.92,14.96,42.24,18.75,49.18,10.29,4.17,0.00,0.00,0.23
0,49.65,48.10,22.00,22.17,40.61,20.00,18.60,18.32,26.76,0.00,0.00,7.10,18.35,0.00,20.55,4.28,0.00,0.00,0.00,0.00,27.51,21.13,3.92,14.30,39.61,12.50,44.26,9.21,4.13,0.00,0.00,0.23
0,48.42,46.84,20.00,21.28,40.52,20.00,18.60,17.92,26.30,0.00,0.00,6.96,18.75,0.00,21.92,4.42,0.00,0.00,0.00,0.00,24.71,15.49,3.92,11.66,38.62,12.50,42.62,8.72,3.95,0.00,0.00,0.22
