0,26.59,11.39,2.00,7.04,13.00,0.00,0.00,1.54,30.99,5.13,0.00,11.14,17.63,0.00,15.07,4.32,0.00,0.00,0.00,0.00,10.76,0.00,0.00,1.73,18.00,0.00,6.56,1.68,2.83,0.00,0.00,0.10
0,25.40,10.13,2.00,6.48,12.85,0.00,0.00,1.52,31.61,5.13,0.00,11.68,17.35,0.00,16.44,4.17,0.00,0.00,0.00,0.00,10.50,0.00,0.00,1.66,17.22,0.00,4.92,1.59,2.83,0.00,0.00,0.10
0,25.88,10.13,2.00,6.61,13.03,0.00,0.00,1.53,33.34,5.13,0.00,12.68,17.21,0.00,16.44,4.16,0.00,0.00,0.00,0.00,10.72,0.00,0.00,1.68,16.77,0.00,4.92,1.55,2.75,0.00,0.00,0.10
0,25.88,10.13,2.00,6.67,12.79,0.00,0.00,1.49,34.25,5.13,0.00,13.48,17.93,0.00,17.81,4.41,0.00,0.00,0.00,0.00,10.61,0.00,0.00,1.67,17.51,0.00,4.92,1.63,2.96,0.00,0.00,0.12
0,25.54,10.13,2.00,6.53,12.68,0.00,0.00,1.48,34.93,5.13,0.00,13.94,18.40,0.00,20.55,4.67,0.00,0.00,0.00,0.00,10.25,0.00,0.00,1.66,16.71,0.00,3.28,1.51,2.80,0.00,0.00,0.11
0,25.90,11.39,2.00,6.97,12.93,0.00,0.00,1.50,35.47,5.13,0.00,14.23,19.62,0.00,23.29,5.33,0.00,0.00,0.00,0.00,10.59,0.00,0.00,1.71,17.49,0.00,3.28,1.58,2.75,0.00,0.00,0.11
0,25.27,10.13,2.00,6.63,12.95,0.00,0.00,1.49,35.37,5.13,0.00,14.33,19.67,0.00,20.55,5.42,0.00,0.00,0.00,0.00,10.50,0.00,0.00,1.65,17.76,0.00,6.56,1.60,2.85,0.00,0.00,0.12
0,24.81,8.86,2.00,6.27,12.82,0.00,0.00,1.48,35.77,5.13,0.00,14.63,19.77,0.00,19.18,5.51,0.00,0.00,0.00,0.00,10.32,0.00,0.00,1.61,17.81,0.00,6.56,1.64,2.81,0.00,0.00,0.11
0,25.86,8.86,2.00,7.17,12.50,0.00,0.00,1.38,36.15,5.13,0.00,15.15,19.69,0.00,19.18,5.57,0.00,0.00,0.00,0.00,10.20,0.00,0.00,1.54,18.21,0.00,8.20,1.75,2.82,0.00,0.00,0.11
0,25.35,8.86,2.00,6.97,12.25,0.00,0.00,1.32,37.44,5.13,0.00,15.95,19.87,0.00,19.18,5.70,0.00,0.00,0.00,0.00,9.96,0.00,0.00,1.50,17.65,0.00,8.20,1.70,2.95,0.00,0.00,0.13
0,26.25,10.13,2.00,7.20,12.31,0.00,0.00,1.31,37.48,5.13,0.00,16.22,19.82,0.00,19.18,5.79,0.00,0.00,0.00,0.00,9.89,0.00,0.00,1.47,17.78,0.00,8.20,1.70,2.81,0.00,0.00,0.11
0,26.96,11.39,2.00,7.66,12.10,0.00,0.00,1.30,36.82,5.13,0.00,16.31,20.06,0.00,19.18,5.92,0.00,0.00,0.00,0.00,9.97,0.00,0.00,1.60,17.69,0.00,8.20,1.71,2.89,0.00,0.00,0.12
0,27.14,11.39,2.00,7.73,11.95,0.00,0.00,1.25,37.56,5.13,0.00,17.13,20.39,0.00,19.18,6.16,0.00,0.00,0.00,0.00,9.89,0.00,0.00,1.62,17.60,0.00,8.20,1.70,2.97,0.00,0.00,0.12
0,27.50,12.66,2.00,7.87,12.15,0.00,0.00,1.27,37.87,5.13,0.00,17.34,20.50,0.00,20.55,6.18,0.00,0.00,0.00,0.00,10.05,0.00,0.00,1.62,17.82,0.00,8.20,1.68,2.89,0.00,0.00,0.12
0,28.77,13.92,2.00,8.72,11.87,0.00,0.00,1.23,38.16,5.13,0.00,17.64,20.38,0.00,21.92,6.09,0.00,0.00,0.00,0.00,10.27,0.00,0.00,1.66,18.25,0.00,8.20,1.71,2.95,0.00,0.00,0.12
0,29.43,13.92,2.00,9.07,12.38,0.00,0.00,1.33,37.41,5.13,0.00,17.30,20.23,0.00,20.55,6.09,0.00,0.00,0.00,0.00,10.43,0.00,0.00,1.68,18.03,0.00,8.20,1.69,2.92,0.00,0.00,0.12
0,27.86,12.66,2.00,8.51,11.73,0.00,0.00,1.16,36.03,2.56,0.00,16.29,19.79,0.00,17.81,5.86,0.00,0.00,0.00,0.00,10.23,0.00,0.00,1.59,17.18,0.00,8.20,1.54,2.89,0.00,0.00,0.12
0,27.63,12.66,2.00,8.30,12.11,0.00,0.00,1.23,35.95,2.56,0.00,15.88,19.24,0.00,17.81,5.34,0.00,0.00,0.00,0.00,11.06,0.00,0.00,1.83,18.21,0.00,9.84,1.75,2.87,0.00,0.00,0.12
0,28.09,12.66,2.00,8.40,11.87,0.00,0.00,1.20,34.57,0.00,0.00,14.85,18.73,0.00,16.44,5.16,0.00,0.00,0.00,0.00,11.28,0.00,0.00,1.86,18.58,0.00,9.84,1.79,2.92,0.00,0.00,0.12
0,28.29,12.66,2.00,8.43,11.97,0.00,0.00,1.21,34.74,0.00,0.00,14.93,18.73,0.00,15.07,5.07,0.00,0.00,0.00,0.00,10.98,0.00,0.00,1.79,17.58,0.00,8.20,1.57,2.97,0.00,0.00,0.12
0,26.97,10.13,0.00,7.78,12.29,0.00,0.00,1.28,33.73,0.00,0.00,14.11,18.59,0.00,15.07,5.12,0.00,0.00,0.00,0.00,10.87,0.00,0.00,1.76,18.13,0.00,9.84,1.69,2.97,0.00,0.00,0.12
0,26.17,8.86,0.00,7.39,12.22,0.00,0.00,1.28,33.33,0.00,0.00,13.62,18.92,0.00,16.44,5.20,0.00,0.00,0.00,0.00,10.57,0.00,0.00,1.68,17.63,0.00,9.84,1.65,2.85,0.00,0.00,0.11
0,26.30,8.86,0.00,7.40,12.24,0.00,0.00,1.26,33.32,0.00,0.00,13.42,18.63,0.00,13.70,5.08,0.00,0.00,0.00,0.00,10.42,0.00,0.00,1.64,17.94,0.00,9.84,1.75,2.85,0.00,0.00,0.11
0,26.09,8.86,0.00,7.34,12.17,0.00,0.00,1.26,33.01,0.00,0.00,12.98,18.89,0.00,15.07,5.06,0.00,0.00,0.00,0.00,10.34,0.00,0.00,1.62,18.18,0.00,9.84,1.78,2.95,0.00,0.00,0.11
0,25.69,8.86,0.00,7.26,12.55,0.00,0.00,1.32,32.20,0.00,0.00,12.36,18.40,0.00,13.70,4.87,0.00,0.00,0.00,0.00,10.40,0.00,0.00,1.62,17.88,0.00,9.84,1.74,2.84,0.00,0.00,0.10
0,25.82,8.86,0.00,7.33,12.68,0.00,0.00,1.34,31.60,0.00,0.00,12.21,18.19,0.00,12.33,4.71,0.00,0.00,0.00,0.00,10.69,0.00,0.00,1.66,18.39,0.00,9.84,1.80,2.96,0.00,0.00,0.10
0,24.47,7.59,0.00,6.63,12.97,0.00,0.00,1.38,32.28,0.00,0.00,12.33,17.27,0.00,10.96,4.15,0.00,0.00,0.00,0.00,10.10,0.00,0.00,1.48,18.19,0.00,9.84,1.76,3.16,0.00,0.00,0.12
0,24.90,8.86,0.00,6.77,12.84,0.00,0.00,1.37,31.05,0.00,0.00,11.41,17.17,0.00,10.96,3.98,0.00,0.00,0.00,0.00,9.99,0.00,0.00,1.48,17.86,0.00,6.56,1.71,3.16,0.00,0.00,0.12
0,24.67,8.86,0.00,6.75,12.74,0.00,0.00,1.34,30.70,0.00,0.00,10.99,16.79,0.00,9.59,3.85,0.00,0.00,0.00,0.00,9.99,0.00,0.00,1.46,17.52,0.00,6.56,1.66,3.15,0.00,0.00,0.12
0,23.46,7.59,0.00,6.15,12.74,0.00,0.00,1.33,31.39,2.56,0.00,11.26,16.89,0.00,9.59,3.80,0.00,0.00,0.00,0.00,9.87,0.00,0.00,1.42,16.80,0.00,4.92,1.54,3.28,0.00,0.00,0.13
0,22.99,7.59,0.00,5.67,12.56,0.00,0.00,1.33,30.52,2.56,0.00,10.65,16.55,0.00,9.59,3.62,0.00,0.00,0.00,0.00,9.85,0.00,0.00,1.43,17.27,0.00,4.92,1.61,3.10,0.00,0.00,0.12
0,22.86,6.33,0.00,5.61,12.61,0.00,0.00,1.37,30.55,2.56,0.00,10.71,16.68,0.00,10.96,3.65,0.00,0.00,0.00,0.00,9.78,0.00,0.00,1.44,17.69,0.00,4.92,1.69,3.12,0.00,0.00,0.12
0,21.77,3.80,0.00,4.98,12.71,0.00,0.00,1.38,29.95,2.56,0.00,10.17,17.31,0.00,13.70,3.88,0.00,0.00,0.00,0.00,9.47,0.00,0.00,1.28,17.77,0.00,4.92,1.70,3.14,0.00,0.00,0.12
0,21.76,3.80,0.00,4.81,12.77,0.00,0.00,1.39,28.76,2.56,0.00,9.12,16.93,0.00,13.70,3.62,0.00,0.00,0.00,0.00,9.38,0.00,0.00,1.19,17.55,0.00,4.92,1.70,3.08,0.00,0.00,0.11
0,22.10,3.80,0.00,5.02,12.37,0.00,0.00,1.32,27.96,2.56,0.00,8.50,16.84,0.00,12.33,3.49,0.00,0.00,0.00,0.00,9.23,0.00,0.00,1.21,17.35,0.00,4.92,1.68,3.19,0.00,0.00,0.12
0,21.20,1.27,0.00,4.21,12.45,0.00,0.00,1.37,27.47,2.56,0.00,7.70,16.92,0.00,13.70,3.48,0.00,0.00,0.00,0.00,9.22,0.00,0.00,1.20,16.78,0.00,4.92,1.63,3.20,0.00,0.00,0.12
0,20.36,1.27,0.00,3.79,12.08,0.00,0.00,1.27,28.33,2.56,0.00,7.63,16.76,0.00,13.70,3.40,0.00,0.00,0.00,0.00,8.96,0.00,0.00,1.17,16.27,0.00,4.92,1.58,3.22,0.00,0.00,0.12
0,20.54,1.27,0.00,3.68,12.35,0.00,0.00,1.34,29.51,2.56,0.00,8.58,16.83,0.00,13.70,3.52,0.00,0.00,0.00,0.00,9.08,0.00,0.00,1.24,16.47,0.00,3.28,1.59,3.19,0.00,0.00,0.12
0,21.06,2.53,0.00,3.74,12.67,0.00,0.00,1.41,29.91,2.56,0.00,8.67,16.80,0.00,15.07,3.57,0.00,0.00,0.00,0.00,8.64,0.00,0.00,1.11,15.81,0.00,1.64,1.45,3.19,0.00,0.00,0.12
0,20.28,2.53,0.00,3.62,12.91,0.00,0.00,1.45,29.83,2.56,0.00,8.72,17.00,0.00,16.44,3.67,0.00,0.00,0.00,0.00,8.31,0.00,0.00,1.01,15.59,0.00,1.64,1.36,3.22,0.00,0.00,0.13
0,20.00,2.53,0.00,3.55,13.17,0.00,0.00,1.48,29.72,2.56,0.00,8.48,16.88,0.00,16.44,3.57,0.00,0.00,0.00,0.00,8.10,0.00,0.00,0.98,16.10,0.00,1.64,1.40,3.25,0.00,0.00,0.13
0,19.95,2.53,0.00,3.45,13.08,0.00,0.00,1.47,30.86,5.13,0.00,8.98,16.96,0.00,17.81,3.56,0.00,0.00,0.00,0.00,7.96,0.00,0.00,0.96,15.98,0.00,1.64,1.37,3.17,0.00,0.00,0.13
0,19.59,2.53,0.00,3.36,12.78,0.00,0.00,1.39,30.67,5.13,0.00,8.82,16.58,0.00,17.81,3.21,0.00,0.00,0.00,0.00,7.99,0.00,0.00,0.97,15.08,0.00,0.00,1.21,3.14,0.00,0.00,0.13
0,20.37,2.53,0.00,3.56,12.81,0.00,0.00,1.38,30.36,5.13,0.00,8.82,16.50,0.00,19.18,3.15,0.00,0.00,0.00,0.00,8.06,0.00,0.00,1.00,14.83,0.00,0.00,1.14,3.19,0.00,0.00,0.13
0,20.13,2.53,0.00,3.48,12.60,0.00,0.00,1.35,29.13,5.13,0.00,8.36,16.32,0.00,17.81,3.18,0.00,0.00,0.00,0.00,8.08,0.00,0.00,1.01,14.59,0.00,0.00,1.08,3.14,0.00,0.00,0.13
0,20.55,2.53,0.00,3.67,12.85,0.00,0.00,1.39,29.85,5.13,0.00,8.50,16.10,0.00,19.18,3.10,0.00,0.00,0.00,0.00,8.10,0.00,0.00,1.04,14.63,0.00,0.00,1.07,3.10,0.00,0.00,0.13
0,21.17,3.80,0.00,3.97,12.96,0.00,0.00,1.41,29.40,5.13,0.00,8.29,15.88,0.00,17.81,3.04,0.00,0.00,0.00,0.00,8.24,0.00,0.00,1.07,14.84,0.00,0.00,1.13,3.23,0.00,0.00,0.15
0,21.04,3.80,0.00,4.01,12.86,0.00,0.00,1.40,29.44,5.13,0.00,8.33,15.93,0.00,17.81,3.03,0.00,0.00,0.00,0.00,8.27,0.00,0.00,1.10,14.48,0.00,0.00,1.08,3.06,0.00,0.00,0.14
0,20.87,3.80,0.00,3.97,13.12,0.00,0.00,1.51,30.07,5.13,0.00,8.68,15.64,0.00,17.81,3.02,0.00,0.00,0.00,0.00,8.35,0.00,0.00,1.11,15.37,0.00,1.64,1.30,3.02,0.00,0.00,0.13
0,20.09,2.53,0.00,3.64,13.54,0.00,0.00,1.61,29.93,5.13,0.00,8.73,16.46,0.00,19.18,3.39,0.00,0.00,0.00,0.00,8.65,0.00,0.00,1.20,15.18,0.00,1.64,1.30,2.95,0.00,0.00,0.13
0,19.53,2.53,0.00,3.51,13.90,0.00,0.00,1.71,28.81,2.56,0.00,7.93,16.60,0.00,19.18,3.49,0.00,0.00,0.00,0.00,8.71,0.00,0.00,1.21,15.40,0.00,1.64,1.32,2.77,0.00,0.00,0.11
0,19.47,2.53,0.00,3.50,14.19,0.00,0.00,1.76,28.72,2.56,0.00,7.72,17.41,0.00,21.92,3.81,0.00,0.00,0.00,0.00,8.75,0.00,0.00,1.23,15.52,0.00,1.64,1.32,2.82,0.00,0.00,0.12
0,19.13,2.53,0.00,3.46,14.44,0.00,0.00,1.85,29.33,2.56,0.00,7.82,17.01,0.00,20.55,3.64,0.00,0.00,0.00,0.00,9.03,0.00,0.00,1.28,15.53,0.00,3.28,1.32,2.81,0.00,0.00,0.11
0,19.27,3.80,0.00,3.45,14.23,0.00,0.00,1.82,29.73,2.56,0.00,7.98,16.11,0.00,17.81,3.22,0.00,0.00,0.00,0.00,9.09,0.00,0.00,1.29,15.14,0.00,3.28,1.28,2.76,0.00,0.00,0.11
0,19.06,3.80,0.00,3.44,14.45,0.00,0.00,1.87,30.42,2.56,0.00,8.23,16.98,0.00,19.18,3.43,0.00,0.00,0.00,0.00,8.99,0.00,0.00,1.29,14.94,0.00,3.28,1.25,2.84,0.00,0.00,0.11
0,19.62,3.80,0.00,3.61,14.33,0.00,0.00,1.83,30.22,2.56,0.00,8.30,16.87,0.00,20.55,3.43,0.00,0.00,0.00,0.00,9.12,0.00,0.00,1.36,15.09,0.00,3.28,1.24,2.88,0.00,0.00,0.12
0,19.29,3.80,0.00,3.54,14.69,0.00,0.00,1.89,30.65,2.56,0.00,9.02,16.50,0.00,17.81,3.42,0.00,0.00,0.00,0.00,8.96,0.00,0.00,1.28,16.12,0.00,3.28,1.36,2.95,0.00,0.00,0.12
0,20.37,6.33,0.00,3.91,15.15,0.00,0.00,2.03,30.28,2.56,0.00,8.96,16.81,0.00,19.18,3.56,0.00,0.00,0.00,0.00,9.20,0.00,0.00,1.33,16.79,0.00,3.28,1.44,2.93,0.00,0.00,0.12
0,20.47,6.33,0.00,4.05,15.27,0.00,0.00,2.08,30.06,2.56,0.00,8.52,17.35,0.00,20.55,3.86,0.00,0.00,0.00,0.00,9.35,0.00,0.00,1.35,16.75,0.00,3.28,1.46,2.94,0.00,0.00,0.12
0,20.66,6.33,0.00,4.42,15.35,0.00,0.00,2.04,29.42,2.56,0.00,8.23,17.21,0.00,20.55,3.78,0.00,0.00,0.00,0.00,9.57,0.00,0.00,1.45,16.91,0.00,3.28,1.51,2.98,0.00,0.00,0.12
0,20.52,6.33,0.00,4.23,14.98,0.00,0.00,1.97,29.29,2.56,0.00,8.23,16.93,0.00,19.18,3.69,0.00,0.00,0.00,0.00,10.08,0.00,0.00,1.57,17.47,0.00,4.92,1.59,3.11,0.00,0.00,0.13
0,21.27,6.33,0.00,4.46,15.10,0.00,0.00,2.01,29.43,2.56,0.00,8.36,17.08,0.00,19.18,3.90,0.00,0.00,0.00,0.00,10.01,0.00,0.00,1.56,17.27,0.00,4.92,1.59,3.00,0.00,0.00,0.12
0,20.83,6.33,0.00,4.41,14.98,0.00,0.00,1.95,27.71,0.00,0.00,7.62,17.39,0.00,19.18,3.97,0.00,0.00,0.00,0.00,10.27,0.00,0.00,1.63,17.66,0.00,4.92,1.62,3.05,0.00,0.00,0.13
0,21.59,6.33,0.00,4.61,14.92,0.00,0.00,1.95,27.43,0.00,0.00,7.60,17.18,0.00,17.81,3.85,0.00,0.00,0.00,0.00,10.33,0.00,0.00,1.67,17.89,0.00,4.92,1.67,3.11,0.00,0.00,0.13
0,21.08,6.33,0.00,4.44,14.85,0.00,0.00,1.97,27.05,0.00,0.00,7.74,16.81,0.00,16.44,3.83,0.00,0.00,0.00,0.00,10.27,0.00,0.00,1.64,17.51,0.00,4.92,1.63,3.04,0.00,0.00,0.13
0,20.81,6.33,0.00,4.33,15.07,0.00,0.00,2.00,27.45,0.00,0.00,7.75,16.58,0.00,16.44,3.74,0.00,0.00,0.00,0.00,10.40,0.00,0.00,1.66,17.41,0.00,4.92,1.63,3.08,0.00,0.00,0.13
0,21.33,6.33,0.00,4.53,14.81,0.00,0.00,1.99,27.19,0.00,0.00,7.54,16.87,0.00,16.44,3.74,0.00,0.00,0.00,0.00,10.56,0.00,0.00,1.67,17.04,0.00,4.92,1.60,3.11,0.00,0.00,0.13
0,20.87,5.06,0.00,4.22,14.75,0.00,0.00,1.99,26.71,0.00,0.00,7.61,16.98,0.00,16.44,3.71,0.00,0.00,0.00,0.00,10.55,0.00,0.00,1.66,16.85,0.00,4.92,1.57,2.90,0.00,0.00,0.10
0,21.35,5.06,0.00,4.32,14.62,0.00,0.00,1.97,26.13,0.00,0.00,7.41,17.01,0.00,15.07,3.78,0.00,0.00,0.00,0.00,10.46,0.00,0.00,1.62,17.17,0.00,4.92,1.61,2.93,0.00,0.00,0.11
0,21.70,5.06,0.00,4.35,14.51,0.00,0.00,1.90,25.05,0.00,0.00,7.22,17.19,0.00,15.07,3.84,0.00,0.00,0.00,0.00,10.44,0.00,0.00,1.61,16.68,0.00,3.28,1.48,3.01,0.00,0.00,0.11
0,22.15,5.06,0.00,4.52,14.66,0.00,0.00,1.90,24.97,0.00,0.00,7.26,17.05,0.00,16.44,3.81,0.00,0.00,0.00,0.00,9.99,0.00,0.00,1.52,16.92,0.00,4.92,1.48,3.03,0.00,0.00,0.12
0,22.51,5.06,0.00,4.66,13.88,0.00,0.00,1.72,24.92,0.00,0.00,7.30,17.07,0.00,16.44,3.79,0.00,0.00,0.00,0.00,9.89,0.00,0.00,1.49,17.82,0.00,4.92,1.60,3.11,0.00,0.00,0.12
0,23.02,6.33,0.00,4.79,14.07,0.00,0.00,1.70,24.92,0.00,0.00,7.35,16.26,0.00,13.70,3.47,0.00,0.00,0.00,0.00,10.30,0.00,0.00,1.61,18.01,0.00,6.56,1.62,3.15,0.00,0.00,0.12
0,23.81,6.33,0.00,4.88,13.47,0.00,0.00,1.56,24.69,0.00,0.00,7.13,16.43,0.00,13.70,3.47,0.00,0.00,0.00,0.00,10.18,0.00,0.00,1.58,17.97,0.00,4.92,1.59,3.16,0.00,0.00,0.12
0,23.87,6.33,0.00,5.02,13.30,0.00,0.00,1.52,23.43,0.00,0.00,6.68,16.29,0.00,13.70,3.46,0.00,0.00,0.00,0.00,10.34,0.00,0.00,1.62,18.85,0.00,4.92,1.71,3.22,0.00,0.00,0.12
0,23.74,6.33,0.00,4.96,13.33,0.00,0.00,1.52,23.76,0.00,0.00,6.64,15.95,0.00,12.33,3.37,0.00,0.00,0.00,0.00,10.38,0.00,0.00,1.60,18.93,0.00,4.92,1.72,3.32,0.00,0.00,0.13
0,23.18,6.33,0.00,4.67,13.51,0.00,0.00,1.55,23.33,0.00,0.00,6.53,15.78,0.00,12.33,3.38,0.00,0.00,0.00,0.00,10.32,0.00,0.00,1.59,18.70,0.00,4.92,1.73,3.20,0.00,0.00,0.12
0,23.14,6.33,0.00,4.75,13.82,0.00,0.00,1.72,22.89,0.00,0.00,5.85,16.31,0.00,13.70,3.52,0.00,0.00,0.00,0.00,10.16,0.00,0.00,1.56,18.40,0.00,4.92,1.76,3.18,0.00,0.00,0.12
0,21.93,3.80,0.00,4.30,13.94,0.00,0.00,1.69,23.37,0.00,0.00,5.82,16.47,0.00,15.07,3.55,0.00,0.00,0.00,0.00,9.68,0.00,0.00,1.46,18.16,0.00,4.92,1.73,3.17,0.00,0.00,0.12
0,22.35,3.80,0.00,4.34,13.26,0.00,0.00,1.55,23.12,0.00,0.00,5.64,15.92,0.00,15.07,3.18,0.00,0.00,0.00,0.00,9.38,0.00,0.00,1.38,18.17,0.00,4.92,1.71,3.10,0.00,0.00,0.12
0,21.40,2.53,0.00,4.00,13.31,0.00,0.00,1.56,23.14,0.00,0.00,5.61,15.59,0.00,12.33,3.04,0.00,0.00,0.00,0.00,8.97,0.00,0.00,1.26,17.90,0.00,4.92,1.63,3.15,0.00,0.00,0.12
0,21.08,2.53,0.00,3.86,13.49,0.00,0.00,1.61,23.35,0.00,0.00,5.52,15.28,0.00,12.33,2.87,0.00,0.00,0.00,0.00,8.62,0.00,0.00,1.19,17.37,0.00,3.28,1.54,3.00,0.00,0.00,0.11
0,20.97,2.53,0.00,3.81,13.25,0.00,0.00,1.59,23.55,0.00,0.00,5.75,15.30,0.00,12.33,2.69,0.00,0.00,0.00,0.00,8.65,0.00,0.00,1.14,16.76,0.00,3.28,1.47,2.99,0.00,0.00,0.11
0,20.98,2.53,0.00,3.81,13.19,0.00,0.00,1.55,24.01,0.00,0.00,5.85,14.76,0.00,10.96,2.55,0.00,0.00,0.00,0.00,8.71,0.00,0.00,1.13,16.91,0.00,4.92,1.57,3.12,0.00,0.00,0.11
0,21.20,2.53,0.00,4.00,13.77,0.00,0.00,1.61,24.51,0.00,0.00,6.11,14.62,0.00,10.96,2.68,0.00,0.00,0.00,0.00,8.96,0.00,0.00,1.14,16.70,0.00,4.92,1.58,3.04,0.00,0.00,0.11
0,21.90,3.80,0.00,4.34,13.61,0.00,0.00,1.57,25.24,0.00,0.00,6.61,15.06,0.00,10.96,2.86,0.00,0.00,0.00,0.00,9.22,0.00,0.00,1.19,16.98,0.00,4.92,1.59,3.08,0.00,0.00,0.11
0,22.62,3.80,0.00,4.46,13.52,0.00,0.00,1.56,24.69,0.00,0.00,6.38,16.13,0.00,13.70,3.29,0.00,0.00,0.00,0.00,9.32,0.00,0.00,1.22,17.64,0.00,4.92,1.64,3.25,0.00,0.00,0.13
0,22.37,3.80,0.00,4.39,14.02,0.00,0.00,1.63,25.07,0.00,0.00,6.64,16.13,0.00,15.07,3.29,0.00,0.00,0.00,0.00,9.40,0.00,0.00,1.24,17.97,0.00,4.92,1.66,3.16,0.00,0.00,0.12
0,21.91,3.80,0.00,4.14,13.94,0.00,0.00,1.64,25.74,0.00,0.00,6.97,16.57,0.00,15.07,3.49,0.00,0.00,0.00,0.00,9.33,0.00,0.00,1.23,17.81,0.00,4.92,1.63,3.13,0.00,0.00,0.12
0,22.47,5.06,0.00,4.72,14.32,0.00,0.00,1.72,25.52,0.00,0.00,6.84,16.51,0.00,16.44,3.56,0.00,0.00,0.00,0.00,9.13,0.00,0.00,1.20,18.08,0.00,4.92,1.64,3.30,0.00,0.00,0.14
0,22.12,5.06,0.00,4.78,14.19,0.00,0.00,1.68,24.87,0.00,0.00,6.43,16.33,0.00,16.44,3.39,0.00,0.00,0.00,0.00,9.06,0.00,0.00,1.19,18.19,0.00,4.92,1.65,3.22,0.00,0.00,0.13
0,21.89,5.06,0.00,4.67,14.34,0.00,0.00,1.68,25.64,0.00,0.00,6.73,15.55,0.00,13.70,3.05,0.00,0.00,0.00,0.00,9.20,0.00,0.00,1.24,17.65,0.00,3.28,1.56,3.29,0.00,0.00,0.13
0,21.82,5.06,0.00,4.66,14.66,0.00,0.00,1.76,26.44,0.00,0.00,7.55,15.75,0.00,13.70,3.11,0.00,0.00,0.00,0.00,9.41,0.00,0.00,1.26,17.73,0.00,3.28,1.52,3.29,0.00,0.00,0.13
0,21.42,3.80,0.00,4.58,14.39,0.00,0.00,1.74,26.96,0.00,0.00,8.00,15.75,0.00,13.70,3.12,0.00,0.00,0.00,0.00,9.07,0.00,0.00,1.23,17.31,0.00,1.64,1.48,3.20,0.00,0.00,0.13
0,21.00,3.80,0.00,4.47,14.32,0.00,0.00,1.72,27.35,0.00,0.00,8.29,15.46,0.00,13.70,3.09,0.00,0.00,0.00,0.00,9.11,0.00,0.00,1.22,17.43,0.00,1.64,1.55,3.23,0.00,0.00,0.13
0,21.24,2.53,0.00,4.43,14.27,0.00,0.00,1.72,28.10,0.00,0.00,8.54,15.31,0.00,13.70,3.04,0.00,0.00,0.00,0.00,8.95,0.00,0.00,1.18,17.20,0.00,4.92,1.50,3.23,0.00,0.00,0.13
0,21.14,2.53,0.00,4.39,14.52,0.00,0.00,1.78,28.61,0.00,0.00,9.00,15.14,0.00,13.70,3.01,0.00,0.00,0.00,0.00,8.76,0.00,0.00,1.16,17.06,0.00,4.92,1.49,3.10,0.00,0.00,0.13
0,21.29,2.53,0.00,4.42,14.39,0.00,0.00,1.78,28.45,0.00,0.00,8.98,15.06,0.00,12.33,2.91,0.00,0.00,0.00,0.00,9.04,0.00,0.00,1.20,18.05,0.00,6.56,1.67,3.09,0.00,0.00,0.12
0,21.53,3.80,0.00,4.57,13.90,0.00,0.00,1.58,28.62,0.00,0.00,9.34,14.81,0.00,10.96,2.78,0.00,0.00,0.00,0.00,8.88,0.00,0.00,1.15,17.95,0.00,6.56,1.63,2.95,0.00,0.00,0.12
0,22.19,5.06,0.00,4.82,13.67,0.00,0.00,1.54,28.70,0.00,0.00,9.69,15.04,0.00,9.59,2.98,0.00,0.00,0.00,0.00,9.02,0.00,0.00,1.20,18.01,0.00,6.56,1.55,2.98,0.00,0.00,0.12
0,22.59,5.06,0.00,4.96,13.87,0.00,0.00,1.56,28.11,0.00,0.00,9.79,15.00,0.00,8.22,2.95,0.00,0.00,0.00,0.00,8.98,0.00,0.00,1.21,18.10,0.00,8.20,1.57,3.21,0.00,0.00,0.13
0,22.41,5.06,0.00,4.92,14.24,0.00,0.00,1.63,28.09,0.00,0.00,9.81,14.77,0.00,8.22,2.92,0.00,0.00,0.00,0.00,9.24,0.00,0.00,1.24,17.87,0.00,8.20,1.55,3.20,0.00,0.00,0.13
0,22.82,5.06,0.00,5.02,13.73,0.00,0.00,1.56,27.94,0.00,0.00,9.85,14.78,0.00,8.22,3.00,0.00,0.00,0.00,0.00,9.52,0.00,0.00,1.28,18.01,0.00,8.20,1.56,3.27,0.00,0.00,0.14
0,22.74,5.06,0.00,4.92,13.58,0.00,0.00,1.56,27.90,0.00,0.00,9.76,15.16,0.00,9.59,3.21,0.00,0.00,0.00,0.00,9.51,0.00,0.00,1.29,18.13,0.00,8.20,1.59,3.39,0.00,0.00,0.15
0,22.98,5.06,0.00,5.11,13.95,0.00,0.00,1.64,27.92,0.00,0.00,9.81,16.29,0.00,12.33,3.79,0.00,0.00,0.00,0.00,9.36,0.00,0.00,1.28,17.56,0.00,6.56,1.47,3.23,0.00,0.00,0.13
0,22.52,5.06,0.00,4.86,13.64,0.00,0.00,1.61,27.53,0.00,0.00,9.67,16.35,0.00,12.33,3.74,0.00,0.00,0.00,0.00,9.29,0.00,0.00,1.26,17.33,0.00,6.56,1.40,3.32,0.00,0.00,0.14
0,22.19,3.80,0.00,4.65,13.28,0.00,0.00,1.59,28.20,0.00,0.00,9.75,16.34,0.00,13.70,3.61,0.00,0.00,0.00,0.00,8.85,0.00,0.00,1.17,17.70,0.00,6.56,1.48,3.34,0.00,0.00,0.15
0,21.70,3.80,0.00,4.54,13.58,0.00,0.00,1.61,29.94,0.00,0.00,10.67,16.24,0.00,13.70,3.56,0.00,0.00,0.00,0.00,8.77,0.00,0.00,1.19,17.82,0.00,6.56,1.50,3.09,0.00,0.00,0.12
0,21.34,3.80,0.00,4.41,13.02,0.00,0.00,1.49,30.11,0.00,0.00,11.38,16.26,0.00,12.33,3.64,0.00,0.00,0.00,0.00,8.67,0.00,0.00,1.18,17.89,0.00,6.56,1.51,3.12,0.00,0.00,0.12
0,22.30,6.33,0.00,4.62,12.91,0.00,0.00,1.47,30.97,0.00,0.00,11.65,16.28,0.00,13.70,3.62,0.00,0.00,0.00,0.00,8.69,0.00,0.00,1.15,17.93,0.00,6.56,1.52,3.21,0.00,0.00,0.13
0,21.45,5.06,0.00,4.42,12.74,0.00,0.00,1.48,31.81,0.00,0.00,11.76,15.98,0.00,12.33,3.51,0.00,0.00,0.00,0.00,8.97,0.00,0.00,1.24,17.82,0.00,6.56,1.49,3.08,0.00,0.00,0.12
0,21.33,5.06,0.00,4.17,13.30,0.00,0.00,1.55,32.38,0.00,0.00,11.98,16.00,0.00,12.33,3.50,0.00,0.00,0.00,0.00,9.03,0.00,0.00,1.27,18.03,0.00,8.20,1.54,3.11,0.00,0.00,0.12
0,21.46,5.06,0.00,4.21,13.29,0.00,0.00,1.57,32.14,0.00,0.00,11.71,16.07,0.00,12.33,3.53,0.00,0.00,0.00,0.00,9.24,0.00,0.00,1.31,17.74,0.00,8.20,1.51,3.14,0.00,0.00,0.12
0,21.74,5.06,0.00,4.15,12.78,0.00,0.00,1.53,31.35,0.00,0.00,11.04,16.04,0.00,12.33,3.55,0.00,0.00,0.00,0.00,9.41,0.00,0.00,1.36,17.41,0.00,8.20,1.48,3.08,0.00,0.00,0.12
0,21.86,5.06,0.00,4.10,12.59,0.00,0.00,1.48,31.23,0.00,0.00,10.82,16.22,0.00,12.33,3.56,0.00,0.00,0.00,0.00,9.04,0.00,0.00,1.23,17.41,0.00,8.20,1.48,3.19,0.00,0.00,0.13
0,22.88,6.33,0.00,4.48,12.48,0.00,0.00,1.48,31.38,0.00,0.00,11.07,16.51,0.00,12.33,3.60,0.00,0.00,0.00,0.00,9.29,0.00,0.00,1.24,17.21,0.00,8.20,1.43,3.17,0.00,0.00,0.13
0,22.88,7.59,0.00,4.72,12.44,0.00,0.00,1.47,31.49,0.00,0.00,11.64,16.85,0.00,13.70,3.76,0.00,0.00,0.00,0.00,9.13,0.00,0.00,1.25,16.50,0.00,4.92,1.33,3.16,0.00,0.00,0.12
0,22.76,7.59,0.00,4.65,12.21,0.00,0.00,1.43,31.38,0.00,0.00,11.51,17.10,0.00,13.70,3.90,0.00,0.00,0.00,0.00,9.04,0.00,0.00,1.25,16.80,0.00,4.92,1.38,3.23,0.00,0.00,0.13
0,22.31,7.59,0.00,4.54,12.26,0.00,0.00,1.39,31.65,0.00,0.00,11.69,17.49,0.00,13.70,4.11,0.00,0.00,0.00,0.00,8.95,0.00,0.00,1.25,16.43,0.00,4.92,1.34,3.28,0.00,0.00,0.13
0,21.30,6.33,0.00,4.23,12.44,0.00,0.00,1.44,32.12,0.00,0.00,11.72,17.39,0.00,13.70,4.06,0.00,0.00,0.00,0.00,8.69,0.00,0.00,1.21,16.49,0.00,4.92,1.32,3.28,0.00,0.00,0.13
0,20.49,5.06,0.00,3.94,12.45,0.00,0.00,1.48,32.00,0.00,0.00,11.60,17.10,0.00,12.33,3.81,0.00,0.00,0.00,0.00,8.64,0.00,0.00,1.19,16.57,0.00,4.92,1.31,3.32,0.00,0.00,0.13
0,20.92,5.06,0.00,4.15,12.39,0.00,0.00,1.45,31.83,0.00,0.00,11.32,16.88,0.00,12.33,3.73,0.00,0.00,0.00,0.00,8.72,0.00,0.00,1.18,16.61,0.00,4.92,1.33,3.11,0.00,0.00,0.12
0,21.74,6.33,0.00,4.36,12.55,0.00,0.00,1.46,32.40,0.00,0.00,11.34,17.09,0.00,12.33,3.74,0.00,0.00,0.00,0.00,9.49,0.00,0.00,1.44,17.01,0.00,6.56,1.37,3.16,0.00,0.00,0.13
0,22.65,7.59,0.00,4.60,12.70,0.00,0.00,1.49,32.42,0.00,0.00,11.35,17.24,0.00,12.33,3.71,0.00,0.00,0.00,0.00,9.25,0.00,0.00,1.47,17.00,0.00,6.56,1.38,3.09,0.00,0.00,0.12
0,22.41,7.59,0.00,4.70,12.66,0.00,0.00,1.52,32.12,0.00,0.00,11.23,16.78,0.00,10.96,3.56,0.00,0.00,0.00,0.00,9.11,0.00,0.00,1.42,17.05,0.00,6.56,1.37,3.03,0.00,0.00,0.11
0,21.45,7.59,0.00,4.40,12.72,0.00,0.00,1.48,32.20,0.00,0.00,11.46,15.57,0.00,8.22,2.95,0.00,0.00,0.00,0.00,8.91,0.00,0.00,1.39,17.17,0.00,6.56,1.38,2.98,0.00,0.00,0.11
0,21.27,7.59,0.00,4.35,12.55,0.00,0.00,1.45,33.43,2.56,0.00,11.97,16.03,0.00,9.59,3.05,0.00,0.00,0.00,0.00,9.13,0.00,0.00,1.44,17.95,0.00,8.20,1.51,2.93,0.00,0.00,0.11
0,21.24,8.86,0.00,4.40,13.58,0.00,0.00,1.76,32.12,2.56,0.00,11.35,15.56,0.00,8.22,2.95,0.00,0.00,0.00,0.00,9.12,0.00,0.00,1.43,17.89,0.00,8.20,1.54,2.89,0.00,0.00,0.10
0,21.76,8.86,0.00,4.51,13.79,0.00,0.00,1.89,31.65,2.56,0.00,10.71,14.76,0.00,6.85,2.58,0.00,0.00,0.00,0.00,9.13,0.00,0.00,1.42,18.05,0.00,9.84,1.58,2.95,0.00,0.00,0.10
0,21.24,8.86,0.00,4.45,14.25,0.00,0.00,2.04,31.21,2.56,0.00,9.88,14.49,0.00,5.48,2.49,0.00,0.00,0.00,0.00,8.84,0.00,0.00,1.35,18.07,0.00,9.84,1.58,3.03,0.00,0.00,0.11
0,21.59,8.86,0.00,4.64,14.49,0.00,0.00,2.13,31.54,5.13,0.00,10.79,14.68,0.00,4.11,2.61,0.00,0.00,0.00,0.00,8.93,0.00,0.00,1.38,18.30,0.00,11.48,1.66,2.98,0.00,0.00,0.11
0,21.17,7.59,0.00,4.23,14.57,0.00,0.00,2.20,30.79,5.13,0.00,10.99,15.03,0.00,8.22,2.71,0.00,0.00,0.00,0.00,8.36,0.00,0.00,1.26,18.49,0.00,11.48,1.75,2.98,0.00,0.00,0.11
0,21.44,7.59,0.00,4.26,14.84,0.00,0.00,2.35,31.00,5.13,0.00,11.11,15.35,0.00,8.22,2.91,0.00,0.00,0.00,0.00,8.35,0.00,0.00,1.25,18.91,0.00,13.11,1.86,3.07,0.00,0.00,0.13
0,21.39,7.59,0.00,4.32,14.92,0.00,0.00,2.35,31.72,5.13,0.00,11.79,15.61,0.00,9.59,2.90,0.00,0.00,0.00,0.00,7.96,0.00,0.00,1.17,18.67,0.00,13.11,1.84,2.97,0.00,0.00,0.12
0,21.22,7.59,0.00,4.36,15.02,0.00,0.00,2.32,31.87,5.13,0.00,11.70,15.78,0.00,10.96,2.84,0.00,0.00,0.00,0.00,8.06,0.00,0.00,1.16,19.19,0.00,13.11,1.92,3.02,0.00,0.00,0.12
0,20.95,7.59,0.00,4.29,15.08,0.00,0.00,2.35,31.86,5.13,0.00,11.35,15.59,0.00,10.96,2.78,0.00,0.00,0.00,0.00,8.05,0.00,0.00,1.15,19.28,0.00,13.11,1.98,2.93,0.00,0.00,0.11
0,20.35,7.59,0.00,4.24,15.42,0.00,0.00,2.40,31.87,5.13,0.00,11.16,15.65,0.00,10.96,2.85,0.00,0.00,0.00,0.00,7.80,0.00,0.00,1.13,18.84,0.00,13.11,1.93,2.97,0.00,0.00,0.11
0,19.57,5.06,0.00,3.69,15.64,0.00,0.00,2.46,32.21,5.13,0.00,11.35,15.55,0.00,9.59,2.90,0.00,0.00,0.00,0.00,7.67,0.00,0.00,1.08,18.92,0.00,13.11,1.92,3.03,0.00,0.00,0.11
0,20.61,7.59,0.00,4.08,16.35,0.00,0.00,2.63,31.58,5.13,0.00,11.14,15.61,0.00,12.33,2.82,0.00,0.00,0.00,0.00,7.70,0.00,0.00,1.10,19.21,0.00,13.11,1.96,2.94,0.00,0.00,0.11
0,20.65,7.59,0.00,4.22,16.94,0.00,0.00,2.84,31.71,5.13,0.00,11.20,15.25,0.00,12.33,2.67,0.00,0.00,0.00,0.00,7.54,0.00,0.00,1.08,19.14,0.00,11.48,2.04,2.82,0.00,0.00,0.10
0,21.22,7.59,0.00,4.31,16.81,0.00,0.00,2.77,31.04,5.13,0.00,10.61,15.08,0.00,12.33,2.67,0.00,0.00,0.00,0.00,7.58,0.00,0.00,1.07,19.00,0.00,11.48,2.02,2.99,0.00,0.00,0.11
0,21.07,7.59,0.00,4.32,16.58,0.00,0.00,2.71,31.56,5.13,0.00,10.91,15.42,0.00,12.33,3.04,0.00,0.00,0.00,0.00,7.52,0.00,0.00,1.06,18.70,0.00,11.48,1.98,2.99,0.00,0.00,0.11
0,20.49,7.59,0.00,4.13,16.78,0.00,0.00,2.71,31.28,5.13,0.00,11.07,15.66,0.00,12.33,3.15,0.00,0.00,0.00,0.00,7.43,0.00,0.00,1.04,18.24,0.00,9.84,1.94,3.02,0.00,0.00,0.12
0,19.30,6.33,0.00,3.68,16.57,0.00,0.00,2.70,30.68,5.13,0.00,10.92,15.62,0.00,12.33,3.15,0.00,0.00,0.00,0.00,7.49,0.00,0.00,1.01,18.06,0.00,9.84,1.90,3.10,0.00,0.00,0.13
0,19.99,8.86,0.00,3.86,17.11,0.00,0.00,3.01,31.69,5.13,0.00,11.38,15.74,0.00,15.07,3.16,0.00,0.00,0.00,0.00,8.70,1.41,0.00,1.67,18.99,0.00,13.11,2.17,3.16,0.00,0.00,0.13
0,20.52,8.86,2.00,4.32,16.95,0.00,0.00,2.96,32.49,5.13,0.00,11.53,16.06,0.00,15.07,3.23,0.00,0.00,0.00,0.00,8.78,1.41,0.00,1.69,19.20,0.00,13.11,2.19,3.18,0.00,0.00,0.13
0,21.30,8.86,2.00,4.50,17.06,0.00,0.00,2.96,32.36,5.13,0.00,11.56,16.76,0.00,17.81,3.45,0.00,0.00,0.00,0.00,8.80,1.41,0.00,1.69,19.40,0.00,14.75,2.24,3.21,0.00,0.00,0.13
0,21.32,8.86,2.00,4.53,18.02,0.00,0.00,3.24,30.78,2.56,0.00,10.81,16.29,0.00,16.44,3.35,0.00,0.00,0.00,0.00,8.39,1.41,0.00,1.62,19.17,0.00,13.11,2.22,3.15,0.00,0.00,0.13
0,21.36,8.86,2.00,4.65,17.58,0.00,0.00,3.15,30.63,2.56,0.00,11.02,16.61,0.00,17.81,3.50,0.00,0.00,0.00,0.00,8.54,1.41,0.00,1.65,19.22,0.00,13.11,2.22,3.15,0.00,0.00,0.13
0,21.87,10.13,2.00,4.88,18.13,0.00,0.00,3.16,30.41,2.56,0.00,10.72,17.01,0.00,19.18,3.66,0.00,0.00,0.00,0.00,8.72,1.41,0.00,1.72,19.64,0.00,13.11,2.20,3.16,0.00,0.00,0.13
0,21.75,10.13,2.00,4.75,18.18,0.00,0.00,3.18,30.05,2.56,0.00,10.72,17.36,0.00,21.92,3.67,0.00,0.00,0.00,0.00,8.77,1.41,0.00,1.73,19.28,0.00,13.11,2.22,3.14,0.00,0.00,0.12
0,21.01,8.86,2.00,4.56,18.15,0.00,0.00,3.17,28.74,0.00,0.00,9.26,17.46,0.00,23.29,3.68,0.00,0.00,0.00,0.00,8.57,1.41,0.00,1.68,18.89,0.00,11.48,2.17,3.17,0.00,0.00,0.12
0,21.26,8.86,2.00,4.58,18.42,0.00,0.00,3.16,28.57,0.00,0.00,8.78,16.72,0.00,19.18,3.49,0.00,0.00,0.00,0.00,8.94,1.41,0.00,1.77,19.25,0.00,11.48,2.19,3.24,0.00,0.00,0.12
0,20.88,8.86,2.00,4.54,17.87,0.00,0.00,2.99,27.91,0.00,0.00,8.46,16.67,0.00,20.55,3.35,0.00,0.00,0.00,0.00,8.45,1.41,0.00,1.68,18.21,0.00,8.20,2.02,3.14,0.00,0.00,0.11
0,20.80,8.86,2.00,4.60,17.98,0.00,0.00,2.95,26.70,0.00,0.00,7.67,16.29,0.00,19.18,3.27,0.00,0.00,0.00,0.00,8.63,1.41,0.00,1.72,18.41,0.00,8.20,2.02,3.32,0.00,0.00,0.12
0,20.59,8.86,2.00,4.55,18.21,0.00,0.00,2.99,26.72,0.00,0.00,7.60,15.87,0.00,17.81,3.16,0.00,0.00,0.00,0.00,8.47,1.41,0.00,1.69,17.89,0.00,8.20,1.95,3.27,0.00,0.00,0.12
0,20.74,8.86,2.00,4.58,18.36,0.00,0.00,3.01,26.64,0.00,0.00,7.76,15.80,0.00,17.81,3.14,0.00,0.00,0.00,0.00,8.35,1.41,0.00,1.69,17.88,0.00,8.20,1.93,3.30,0.00,0.00,0.12
0,20.47,8.86,2.00,4.49,18.26,0.00,0.00,2.96,25.89,0.00,0.00,7.29,15.55,0.00,17.81,3.03,0.00,0.00,0.00,0.00,8.54,1.41,0.00,1.71,18.10,0.00,8.20,1.92,3.37,0.00,0.00,0.12
0,20.32,8.86,2.00,4.46,18.51,0.00,0.00,3.00,26.26,0.00,0.00,7.08,15.38,0.00,17.81,2.90,0.00,0.00,0.00,0.00,8.53,1.41,0.00,1.71,18.17,0.00,8.20,1.93,3.24,0.00,0.00,0.12
0,20.02,6.33,2.00,4.40,18.44,0.00,0.00,3.07,25.77,0.00,0.00,6.86,14.80,0.00,15.07,2.71,0.00,0.00,0.00,0.00,8.53,1.41,0.00,1.70,17.98,0.00,8.20,1.86,3.27,0.00,0.00,0.12
0,20.20,6.33,2.00,4.27,17.78,0.00,0.00,2.79,25.61,0.00,0.00,6.73,14.97,0.00,16.44,2.70,0.00,0.00,0.00,0.00,8.54,1.41,0.00,1.70,17.53,0.00,8.20,1.71,3.36,0.00,0.00,0.12
0,20.19,6.33,2.00,4.21,17.62,0.00,0.00,2.76,27.27,0.00,0.00,7.83,15.32,0.00,16.44,2.86,0.00,0.00,0.00,0.00,8.45,1.41,0.00,1.68,17.05,0.00,8.20,1.66,3.30,0.00,0.00,0.12
0,20.43,6.33,2.00,4.26,17.94,0.00,0.00,2.79,27.20,0.00,0.00,7.84,15.21,0.00,16.44,2.72,0.00,0.00,0.00,0.00,8.63,1.41,0.00,1.69,17.43,0.00,8.20,1.71,3.24,0.00,0.00,0.12
0,20.68,6.33,2.00,4.31,18.25,0.00,0.00,2.88,27.35,0.00,0.00,8.06,15.10,0.00,16.44,2.67,0.00,0.00,0.00,0.00,8.79,1.41,0.00,1.73,18.15,0.00,8.20,1.84,3.29,0.00,0.00,0.12
0,21.30,6.33,2.00,4.52,18.22,0.00,0.00,2.88,28.07,0.00,0.00,8.71,15.13,0.00,16.44,2.68,0.00,0.00,0.00,0.00,9.06,1.41,0.00,1.79,18.46,0.00,8.20,1.87,3.13,0.00,0.00,0.10
0,21.38,5.06,2.00,4.71,17.20,0.00,0.00,2.50,27.00,0.00,0.00,8.37,15.15,0.00,15.07,2.74,0.00,0.00,0.00,0.00,7.42,0.00,0.00,1.17,16.84,0.00,3.28,1.53,3.08,0.00,0.00,0.10
0,20.30,3.80,0.00,4.08,17.71,0.00,0.00,2.60,26.34,0.00,0.00,8.12,16.36,0.00,17.81,3.37,0.00,0.00,0.00,0.00,7.10,0.00,0.00,0.85,17.03,0.00,3.28,1.58,3.12,0.00,0.00,0.10
0,19.97,3.80,0.00,3.97,17.79,0.00,0.00,2.60,26.52,0.00,0.00,8.07,15.44,0.00,15.07,3.17,0.00,0.00,0.00,0.00,7.29,0.00,0.00,0.89,17.07,0.00,1.64,1.59,3.08,0.00,0.00,0.10
0,19.74,3.80,0.00,3.92,17.10,0.00,0.00,2.41,27.98,0.00,0.00,8.58,15.74,0.00,16.44,3.22,0.00,0.00,0.00,0.00,7.57,0.00,0.00,0.93,17.54,0.00,1.64,1.60,3.08,0.00,0.00,0.10
0,19.49,3.80,0.00,3.85,16.88,0.00,0.00,2.37,28.25,0.00,0.00,8.86,15.82,0.00,15.07,3.19,0.00,0.00,0.00,0.00,7.42,0.00,0.00,0.91,17.32,0.00,1.64,1.54,3.19,0.00,0.00,0.11
0,18.90,2.53,0.00,3.48,16.06,0.00,0.00,2.09,28.71,0.00,0.00,9.02,15.57,0.00,12.33,3.21,0.00,0.00,0.00,0.00,7.05,0.00,0.00,0.81,16.92,0.00,1.64,1.47,3.13,0.00,0.00,0.10
0,19.27,2.53,0.00,3.69,16.29,0.00,0.00,2.20,29.18,0.00,0.00,8.99,15.80,0.00,10.96,3.32,0.00,0.00,0.00,0.00,7.25,0.00,0.00,0.84,17.20,0.00,1.64,1.53,3.06,0.00,0.00,0.10
0,18.83,2.53,0.00,3.61,15.79,0.00,0.00,2.13,29.82,0.00,0.00,9.28,15.28,0.00,9.59,3.15,0.00,0.00,0.00,0.00,7.17,0.00,0.00,0.83,16.99,0.00,1.64,1.49,3.06,0.00,0.00,0.10
0,19.33,2.53,0.00,3.65,15.62,0.00,0.00,2.11,30.26,0.00,0.00,9.39,15.75,0.00,10.96,3.19,0.00,0.00,0.00,0.00,6.81,0.00,0.00,0.73,16.67,0.00,1.64,1.41,3.11,0.00,0.00,0.10
0,20.38,3.80,0.00,4.16,15.24,0.00,0.00,2.01,30.23,0.00,0.00,9.60,15.54,0.00,9.59,3.27,0.00,0.00,0.00,0.00,7.10,0.00,0.00,0.81,17.28,0.00,1.64,1.53,3.20,0.00,0.00,0.11
0,20.07,3.80,0.00,4.06,15.40,0.00,0.00,2.07,30.89,0.00,0.00,9.94,16.15,0.00,12.33,3.48,0.00,0.00,0.00,0.00,6.98,0.00,0.00,0.77,17.50,0.00,1.64,1.56,3.08,0.00,0.00,0.10
0,19.73,3.80,0.00,3.91,15.34,0.00,0.00,2.14,31.74,0.00,0.00,10.04,16.31,0.00,13.70,3.52,0.00,0.00,0.00,0.00,7.01,0.00,0.00,0.79,17.54,0.00,1.64,1.59,3.10,0.00,0.00,0.10
0,19.64,3.80,0.00,3.88,15.32,0.00,0.00,2.13,31.13,0.00,0.00,9.76,16.49,0.00,13.70,3.55,0.00,0.00,0.00,0.00,6.94,0.00,0.00,0.78,18.04,0.00,1.64,1.66,3.04,0.00,0.00,0.10
0,19.86,3.80,0.00,3.95,15.43,0.00,0.00,2.16,32.50,2.56,0.00,10.63,16.56,0.00,13.70,3.52,0.00,0.00,0.00,0.00,6.98,0.00,0.00,0.78,18.16,0.00,1.64,1.68,3.12,0.00,0.00,0.11
0,20.47,3.80,0.00,4.18,14.97,0.00,0.00,2.11,31.88,2.56,0.00,10.41,16.30,0.00,13.70,3.49,0.00,0.00,0.00,0.00,7.04,0.00,0.00,0.77,18.10,0.00,1.64,1.68,3.19,0.00,0.00,0.12
0,19.86,3.80,0.00,3.97,15.13,0.00,0.00,2.09,32.74,2.56,0.00,10.75,17.05,0.00,16.44,3.74,0.00,0.00,0.00,0.00,7.37,0.00,0.00,0.83,18.90,0.00,4.92,1.83,3.23,0.00,0.00,0.12
0,19.46,3.80,0.00,3.92,14.88,0.00,0.00,1.99,32.61,2.56,0.00,10.63,16.73,0.00,15.07,3.71,0.00,0.00,0.00,0.00,7.31,0.00,0.00,0.82,19.42,0.00,4.92,1.89,3.18,0.00,0.00,0.11
0,19.20,3.80,0.00,3.89,14.68,0.00,0.00,2.01,31.03,2.56,0.00,9.61,16.28,0.00,15.07,3.53,0.00,0.00,0.00,0.00,7.49,0.00,0.00,0.83,20.42,0.00,4.92,2.00,3.23,0.00,0.00,0.12
0,19.27,3.80,0.00,3.81,14.77,0.00,0.00,2.06,30.07,2.56,0.00,8.98,15.99,0.00,15.07,3.37,0.00,0.00,0.00,0.00,7.42,0.00,0.00,0.84,20.66,0.00,6.56,2.02,3.23,0.00,0.00,0.12
0,20.37,3.80,0.00,4.35,14.38,0.00,0.00,1.99,30.30,2.56,0.00,8.98,16.04,0.00,15.07,3.49,0.00,0.00,0.00,0.00,7.39,0.00,0.00,0.82,20.07,0.00,6.56,1.92,3.18,0.00,0.00,0.12
0,19.81,3.80,0.00,4.29,14.39,0.00,0.00,1.98,29.77,2.56,0.00,8.32,16.10,0.00,15.07,3.50,0.00,0.00,0.00,0.00,7.20,0.00,0.00,0.78,20.70,0.00,8.20,2.07,3.19,0.00,0.00,0.12
0,18.49,2.53,0.00,3.79,14.24,0.00,0.00,1.92,29.91,2.56,0.00,8.28,15.67,0.00,13.70,3.37,0.00,0.00,0.00,0.00,7.03,0.00,0.00,0.74,20.90,0.00,8.20,2.15,3.35,0.00,0.00,0.13
0,19.51,5.06,0.00,4.00,13.70,0.00,0.00,1.84,29.55,2.56,0.00,8.00,14.44,0.00,10.96,2.75,0.00,0.00,0.00,0.00,7.23,0.00,0.00,0.79,20.42,0.00,8.20,2.10,3.32,0.00,0.00,0.13
1,22.59,7.59,2.00,6.69,13.84,0.00,0.00,1.82,28.98,2.56,0.00,7.90,15.36,0.00,13.70,3.16,0.00,0.00,0.00,0.00,7.83,0.00,0.00,0.90,20.59,0.00,9.84,2.13,3.43,0.00,0.00,0.13
1,23.23,8.86,2.00,6.95,13.85,0.00,0.00,1.82,28.55,2.56,0.00,7.94,17.06,0.00,17.81,3.78,0.00,0.00,0.00,0.00,8.46,0.00,0.00,1.10,20.19,0.00,9.84,2.08,4.01,0.00,0.00,0.19
1,26.19,10.13,6.00,9.59,13.94,0.00,0.00,1.81,30.61,7.69,0.00,9.04,18.50,0.00,24.66,4.41,0.00,0.00,0.00,0.00,8.78,0.00,0.00,1.12,19.95,0.00,9.84,2.06,4.14,0.00,0.00,0.21
1,29.27,13.92,8.00,10.87,15.08,0.00,0.00,2.12,30.00,7.69,0.00,8.43,18.81,0.00,27.40,4.30,0.00,0.00,0.00,0.00,10.04,0.00,0.00,1.46,20.36,0.00,8.20,2.06,4.21,0.00,0.00,0.21
1,32.66,18.99,14.00,14.26,15.76,0.00,0.00,2.13,29.66,7.69,0.00,8.54,19.57,0.00,30.14,4.69,0.00,0.00,0.00,0.00,11.52,1.41,0.00,2.53,21.51,0.00,11.48,2.38,4.94,0.00,0.00,0.33
1,36.37,24.05,16.00,16.07,16.12,0.00,0.00,2.19,29.53,7.69,0.00,8.53,19.99,0.00,30.14,4.90,0.00,0.00,0.00,0.00,13.19,2.82,0.00,3.56,23.47,3.12,16.39,2.90,5.24,0.00,0.00,0.37
1,39.86,29.11,20.00,18.66,16.83,0.00,0.00,2.34,30.72,7.69,0.00,9.60,19.79,0.00,28.77,4.91,0.00,0.00,0.00,0.00,14.42,2.82,0.00,4.26,25.54,3.12,18.03,3.33,5.40,0.00,0.00,0.39
1,40.81,30.38,24.00,20.30,17.38,0.00,0.00,2.47,30.33,7.69,0.00,9.39,19.86,0.00,28.77,4.87,0.00,0.00,0.00,0.00,15.95,2.82,0.00,4.71,26.07,3.12,21.31,3.58,5.82,0.00,0.00,0.49
1,42.87,34.18,24.00,21.34,17.90,0.00,0.00,2.62,30.34,7.69,0.00,9.56,19.56,0.00,26.03,4.75,0.00,0.00,0.00,0.00,17.37,5.63,0.00,5.41,25.23,3.12,21.31,3.49,5.98,0.00,0.00,0.49
1,46.51,36.71,28.00,24.96,19.03,0.00,0.00,2.95,30.68,7.69,0.00,9.87,20.79,0.00,28.77,5.10,0.00,0.00,0.00,0.00,19.76,11.27,3.92,6.94,26.06,3.12,24.59,3.63,6.40,0.00,0.00,0.59
1,48.62,40.51,28.00,27.34,19.76,0.00,0.00,3.30,31.71,7.69,0.00,10.09,21.09,0.00,31.51,5.14,0.00,0.00,0.00,0.00,21.22,12.68,3.92,7.77,26.24,3.12,24.59,3.71,6.87,0.00,0.00,0.66
1,51.33,43.04,30.00,29.99,20.42,0.00,0.00,3.47,30.51,5.13,0.00,9.40,21.27,0.00,32.88,5.25,0.00,0.00,0.00,0.00,22.33,12.68,3.92,8.24,26.51,3.12,24.59,3.68,6.86,0.00,0.00,0.66
1,54.04,48.10,34.00,31.91,20.83,0.00,0.00,3.52,30.37,5.13,0.00,9.47,22.20,0.00,35.62,5.44,0.00,0.00,0.00,0.00,22.73,12.68,3.92,8.34,26.98,3.12,24.59,3.74,7.07,0.00,0.00,0.69
1,56.59,51.90,34.00,34.12,20.77,0.00,0.00,3.53,30.10,5.13,0.00,9.29,22.81,0.00,35.62,5.79,0.00,0.00,0.00,0.00,22.99,12.68,3.92,8.52,27.31,3.12,24.59,3.80,7.41,0.00,0.00,0.75
1,59.75,55.70,38.00,35.99,21.07,0.00,0.00,3.62,30.75,5.13,0.00,9.54,23.65,0.00,39.73,5.97,0.00,0.00,0.00,0.00,23.40,12.68,3.92,8.62,27.23,3.12,24.59,3.91,7.68,0.00,0.00,0.77
1,61.91,59.49,42.00,37.08,21.26,0.00,0.00,3.63,31.10,5.13,0.00,9.96,24.43,0.00,42.47,6.12,0.00,0.00,0.00,0.00,24.96,14.08,3.92,9.55,27.23,3.12,24.59,3.99,7.93,0.00,0.00,0.79
1,63.47,62.03,42.00,37.98,21.24,0.00,0.00,3.62,31.52,5.13,0.00,10.24,25.46,0.00,45.21,6.62,0.00,0.00,0.00,0.00,25.19,14.08,3.92,9.72,26.44,3.12,22.95,3.87,8.14,0.00,0.00,0.84
1,62.63,62.03,42.00,37.80,21.46,0.00,0.00,3.66,33.36,7.69,0.00,11.55,25.78,0.00,46.58,6.63,0.00,0.00,0.00,0.00,25.60,14.08,3.92,9.85,26.96,3.12,22.95,3.93,8.33,0.00,0.00,0.86
1,64.98,64.56,44.00,40.16,21.96,0.00,0.00,3.89,33.35,7.69,0.00,11.99,26.80,0.00,52.05,6.83,0.00,0.00,0.00,0.00,26.06,14.08,3.92,9.91,26.74,3.12,21.31,3.88,8.66,0.00,0.00,0.89
1,67.99,67.09,46.00,41.50,22.64,0.00,0.00,4.00,33.65,7.69,0.00,12.26,27.90,0.00,53.42,7.30,0.00,0.00,0.00,0.00,27.14,14.08,3.92,10.37,26.86,3.12,21.31,3.91,9.05,0.00,0.00,0.91
1,69.46,69.62,46.00,43.62,22.79,0.00,0.00,4.03,34.74,7.69,0.00,12.74,29.40,0.00,56.16,8.35,0.00,0.00,0.00,0.00,27.36,14.08,3.92,10.47,27.85,3.12,21.31,4.03,9.48,0.00,0.00,1.04
1,66.87,68.35,44.00,41.34,22.85,0.00,0.00,4.07,34.88,7.69,0.00,12.73,29.15,0.00,57.53,8.07,0.00,0.00,0.00,0.00,27.29,14.08,3.92,10.46,27.69,3.12,19.67,3.98,9.65,0.00,0.00,1.07
1,67.13,68.35,44.00,41.45,22.45,0.00,0.00,4.03,35.40,10.26,0.00,13.23,29.41,0.00,57.53,8.12,0.00,0.00,0.00,0.00,26.93,14.08,3.92,10.41,28.07,3.12,19.67,4.03,9.36,0.00,0.00,1.04
1,65.77,69.62,40.00,39.79,22.34,0.00,0.00,4.03,34.49,5.13,0.00,12.28,27.48,0.00,53.42,7.23,0.00,0.00,0.00,0.00,26.75,14.08,3.92,10.34,27.76,3.12,19.67,4.00,9.13,0.00,0.00,1.01
1,66.28,70.89,42.00,41.20,21.85,0.00,0.00,3.96,33.93,5.13,0.00,12.24,26.98,0.00,53.42,6.84,0.00,0.00,0.00,0.00,26.09,14.08,3.92,10.17,27.86,3.12,19.67,4.06,9.35,0.00,0.00,1.03
1,64.98,69.62,42.00,39.00,21.32,0.00,0.00,3.90,33.85,5.13,0.00,12.28,26.43,0.00,49.32,6.64,0.00,0.00,0.00,0.00,25.23,14.08,3.92,9.49,26.72,3.12,16.39,3.73,9.05,0.00,0.00,0.97
1,62.71,65.82,42.00,37.53,21.31,0.00,0.00,3.87,34.77,5.13,0.00,12.63,25.58,0.00,47.95,6.54,0.00,0.00,0.00,0.00,23.98,11.27,3.92,8.67,26.45,3.12,14.75,3.69,8.67,0.00,0.00,0.91
1,61.85,63.29,42.00,36.44,20.96,0.00,0.00,3.80,33.15,5.13,0.00,11.63,25.95,0.00,49.32,6.52,0.00,0.00,0.00,0.00,23.16,11.27,3.92,7.87,24.11,0.00,11.48,2.93,8.48,0.00,0.00,0.89
1,59.15,59.49,36.00,34.49,19.97,0.00,0.00,3.62,33.55,7.69,0.00,12.01,26.14,0.00,49.32,6.62,0.00,0.00,0.00,0.00,21.99,11.27,3.92,7.57,22.45,0.00,8.20,2.46,8.14,0.00,0.00,0.81
1,58.95,59.49,36.00,33.37,19.82,0.00,0.00,3.50,32.94,7.69,0.00,11.75,26.39,0.00,52.05,6.62,0.00,0.00,0.00,0.00,20.90,9.86,3.92,6.93,23.09,0.00,8.20,2.53,8.39,0.00,0.00,0.85
1,58.62,59.49,36.00,33.00,19.13,0.00,0.00,3.24,31.91,7.69,0.00,11.03,25.38,0.00,47.95,6.42,0.00,0.00,0.00,0.00,18.98,4.23,0.00,5.48,22.64,0.00,6.56,2.42,7.96,0.00,0.00,0.77
1,57.47,60.76,34.00,29.94,18.62,0.00,0.00,3.08,31.54,7.69,0.00,10.88,25.48,0.00,47.95,6.47,0.00,0.00,0.00,0.00,17.60,1.41,0.00,4.79,23.05,0.00,6.56,2.36,7.63,0.00,0.00,0.69
1,56.32,59.49,34.00,27.99,17.44,0.00,0.00,2.66,31.59,7.69,0.00,11.03,25.19,0.00,46.58,6.50,0.00,0.00,0.00,0.00,16.61,1.41,0.00,4.34,22.79,0.00,8.20,2.37,7.71,0.00,0.00,0.70
1,55.77,58.23,30.00,27.99,17.26,0.00,0.00,2.65,31.11,7.69,0.00,10.87,25.13,0.00,47.95,6.41,0.00,0.00,0.00,0.00,16.36,1.41,0.00,4.24,22.15,0.00,8.20,2.31,7.53,0.00,0.00,0.68
1,55.16,56.96,32.00,26.49,17.14,0.00,0.00,2.57,30.80,7.69,0.00,10.53,24.16,0.00,47.95,5.93,0.00,0.00,0.00,0.00,16.51,1.41,0.00,4.39,21.95,0.00,6.56,2.26,7.20,0.00,0.00,0.61
1,54.40,56.96,30.00,25.94,17.10,0.00,0.00,2.49,30.99,7.69,0.00,10.71,24.62,0.00,46.58,5.98,0.00,0.00,0.00,0.00,16.59,1.41,0.00,4.42,21.13,0.00,4.92,2.09,6.92,0.00,0.00,0.59
1,53.90,56.96,26.00,25.05,17.67,0.00,0.00,2.65,30.93,7.69,0.00,10.25,25.27,0.00,47.95,6.74,0.00,0.00,0.00,0.00,15.67,1.41,0.00,3.93,21.30,0.00,6.56,2.02,6.85,0.00,0.00,0.58
1,53.70,55.70,28.00,25.14,17.60,0.00,0.00,2.60,31.14,7.69,0.00,10.15,24.40,0.00,43.84,6.23,0.00,0.00,0.00,0.00,15.26,0.00,0.00,3.61,21.75,0.00,8.20,2.09,7.12,0.00,0.00,0.63
1,54.22,55.70,28.00,25.15,17.71,0.00,0.00,2.61,29.60,5.13,0.00,8.44,24.47,0.00,43.84,6.10,0.00,0.00,0.00,0.00,15.41,0.00,0.00,3.57,21.79,0.00,9.84,2.08,6.98,0.00,0.00,0.60
1,52.06,54.43,26.00,22.76,17.32,0.00,0.00,2.47,29.63,5.13,0.00,8.17,23.35,0.00,38.36,6.00,0.00,0.00,0.00,0.00,15.07,0.00,0.00,3.51,21.41,0.00,9.84,1.98,6.92,0.00,0.00,0.60
1,51.04,56.96,24.00,22.96,16.63,0.00,0.00,2.39,29.20,5.13,0.00,7.75,23.90,0.00,42.47,6.07,0.00,0.00,0.00,0.00,14.68,0.00,0.00,3.33,21.01,0.00,9.84,1.89,6.67,0.00,0.00,0.59
1,50.13,55.70,24.00,20.97,16.52,0.00,0.00,2.27,28.39,5.13,0.00,7.27,22.45,0.00,39.73,5.20,0.00,0.00,0.00,0.00,13.97,0.00,0.00,3.01,20.34,0.00,9.84,1.79,6.01,0.00,0.00,0.44
1,50.81,55.70,24.00,20.90,16.59,0.00,0.00,2.27,28.23,5.13,0.00,7.08,21.63,0.00,36.99,4.78,0.00,0.00,0.00,0.00,14.04,0.00,0.00,2.94,20.15,0.00,9.84,1.75,6.22,0.00,0.00,0.45
1,52.10,59.49,24.00,21.97,16.69,0.00,0.00,2.30,27.83,2.56,0.00,6.43,21.11,0.00,34.25,4.70,0.00,0.00,0.00,0.00,13.80,0.00,0.00,2.89,20.05,0.00,9.84,1.73,6.36,0.00,0.00,0.48
1,51.03,56.96,24.00,21.10,16.46,0.00,0.00,2.25,26.61,2.56,0.00,6.18,20.32,0.00,32.88,4.50,0.00,0.00,0.00,0.00,13.93,0.00,0.00,2.97,20.32,0.00,9.84,1.76,6.33,0.00,0.00,0.48
1,49.09,54.43,20.00,19.18,16.28,0.00,0.00,2.10,26.80,2.56,0.00,6.08,20.04,0.00,31.51,4.53,0.00,0.00,0.00,0.00,14.36,0.00,0.00,3.06,20.37,0.00,9.84,1.73,6.49,0.00,0.00,0.50
1,48.15,53.16,18.00,19.12,15.78,0.00,0.00,1.96,26.43,2.56,0.00,5.77,21.01,0.00,34.25,5.03,0.00,0.00,0.00,0.00,13.92,0.00,0.00,2.91,19.98,0.00,9.84,1.72,6.20,0.00,0.00,0.45
1,46.46,49.37,14.00,18.13,15.83,0.00,0.00,1.95,26.12,2.56,0.00,5.37,20.81,0.00,34.25,4.90,0.00,0.00,0.00,0.00,13.63,0.00,0.00,2.78,19.41,0.00,9.84,1.66,6.08,0.00,0.00,0.44
1,45.96,51.90,10.00,17.59,15.32,0.00,0.00,1.78,25.62,2.56,0.00,5.39,21.96,0.00,34.25,5.54,0.00,0.00,0.00,0.00,13.30,0.00,0.00,2.65,18.90,0.00,8.20,1.61,6.46,0.00,0.00,0.49
1,47.79,55.70,14.00,19.05,15.80,0.00,0.00,1.92,25.35,0.00,0.00,5.08,21.98,0.00,36.99,5.54,0.00,0.00,0.00,0.00,13.55,0.00,0.00,2.69,19.06,0.00,8.20,1.67,6.29,0.00,0.00,0.48
1,47.24,54.43,14.00,18.91,15.52,0.00,0.00,1.88,24.84,0.00,0.00,5.18,21.38,0.00,34.25,5.41,0.00,0.00,0.00,0.00,13.44,0.00,0.00,2.68,18.96,0.00,8.20,1.66,6.22,0.00,0.00,0.45
1,47.65,55.70,12.00,19.90,15.43,0.00,0.00,1.86,25.89,0.00,0.00,5.74,22.50,0.00,38.36,5.84,0.00,0.00,0.00,0.00,13.20,0.00,0.00,2.51,18.57,0.00,6.56,1.57,6.35,0.00,0.00,0.46
1,47.07,51.90,12.00,19.61,15.29,0.00,0.00,1.76,26.84,0.00,0.00,6.21,22.26,0.00,36.99,5.65,0.00,0.00,0.00,0.00,13.14,0.00,0.00,2.44,18.25,0.00,6.56,1.55,6.46,0.00,0.00,0.47
1,45.71,50.63,10.00,18.27,15.23,0.00,0.00,1.77,26.23,0.00,0.00,5.97,22.24,0.00,35.62,5.57,0.00,0.00,0.00,0.00,13.65,0.00,0.00,2.56,17.52,0.00,4.92,1.50,6.77,0.00,0.00,0.53
1,45.21,49.37,10.00,17.88,15.35,0.00,0.00,1.81,27.06,0.00,0.00,6.63,22.55,0.00,32.88,5.81,0.00,0.00,0.00,0.00,13.28,0.00,0.00,2.50,18.21,0.00,6.56,1.61,6.77,0.00,0.00,0.53
1,42.50,45.57,8.00,16.28,15.14,0.00,0.00,1.80,26.62,0.00,0.00,6.56,22.42,0.00,31.51,5.84,0.00,0.00,0.00,0.00,12.88,0.00,0.00,2.35,17.73,0.00,6.56,1.57,6.91,0.00,0.00,0.54
1,42.23,44.30,8.00,16.42,15.44,0.00,0.00,1.87,26.07,0.00,0.00,6.38,23.37,0.00,34.25,6.13,0.00,0.00,0.00,0.00,12.88,0.00,0.00,2.19,17.47,0.00,6.56,1.53,6.82,0.00,0.00,0.54
1,42.02,41.77,8.00,16.39,14.74,0.00,0.00,1.70,25.99,0.00,0.00,6.71,21.05,0.00,28.77,5.19,0.00,0.00,0.00,0.00,12.91,0.00,0.00,2.15,17.02,0.00,4.92,1.50,6.76,0.00,0.00,0.54
1,40.23,37.97,6.00,15.32,14.48,0.00,0.00,1.64,25.50,0.00,0.00,6.65,21.26,0.00,31.51,5.23,0.00,0.00,0.00,0.00,12.92,0.00,0.00,2.11,16.83,0.00,3.28,1.42,6.42,0.00,0.00,0.46
1,40.09,37.97,6.00,15.15,14.11,0.00,0.00,1.59,25.29,0.00,0.00,6.76,20.91,0.00,30.14,5.20,0.00,0.00,0.00,0.00,12.56,0.00,0.00,2.07,16.91,0.00,3.28,1.45,6.51,0.00,0.00,0.47
1,39.12,36.71,6.00,14.88,13.89,0.00,0.00,1.52,24.50,0.00,0.00,6.66,21.39,0.00,31.51,5.41,0.00,0.00,0.00,0.00,12.49,0.00,0.00,2.04,16.90,0.00,3.28,1.46,6.53,0.00,0.00,0.47
1,38.34,34.18,6.00,14.58,14.15,0.00,0.00,1.56,24.24,0.00,0.00,6.64,20.42,0.00,27.40,5.07,0.00,0.00,0.00,0.00,12.16,0.00,0.00,1.98,16.79,0.00,3.28,1.45,6.41,0.00,0.00,0.45
1,37.54,30.38,6.00,14.19,14.08,0.00,0.00,1.55,24.60,0.00,0.00,6.90,19.94,0.00,26.03,4.94,0.00,0.00,0.00,0.00,12.32,0.00,0.00,2.01,16.99,0.00,3.28,1.48,6.46,0.00,0.00,0.46
1,40.16,34.18,10.00,16.57,14.03,0.00,0.00,1.56,25.69,0.00,0.00,7.13,20.31,0.00,26.03,5.15,0.00,0.00,0.00,0.00,12.72,0.00,0.00,2.20,16.92,0.00,3.28,1.49,6.84,0.00,0.00,0.51
1,39.91,32.91,10.00,16.56,14.31,0.00,0.00,1.60,24.99,0.00,0.00,6.93,20.05,0.00,26.03,5.04,0.00,0.00,0.00,0.00,13.11,0.00,0.00,2.49,16.82,0.00,3.28,1.49,6.58,0.00,0.00,0.49
1,39.89,31.65,10.00,16.88,14.36,0.00,0.00,1.61,24.90,0.00,0.00,6.82,20.51,0.00,26.03,5.23,0.00,0.00,0.00,0.00,12.87,0.00,0.00,2.49,16.07,0.00,3.28,1.40,6.64,0.00,0.00,0.49
1,40.26,34.18,10.00,17.43,14.53,0.00,0.00,1.66,24.53,0.00,0.00,6.66,20.89,0.00,27.40,5.24,0.00,0.00,0.00,0.00,13.06,0.00,0.00,2.68,15.57,0.00,3.28,1.33,6.47,0.00,0.00,0.49
1,40.31,35.44,10.00,17.36,14.48,0.00,0.00,1.63,24.20,0.00,0.00,6.63,20.35,0.00,24.66,4.85,0.00,0.00,0.00,0.00,13.05,0.00,0.00,2.83,15.67,0.00,3.28,1.37,6.34,0.00,0.00,0.47
1,40.31,35.44,10.00,17.45,14.81,0.00,0.00,1.76,24.27,0.00,0.00,6.68,20.00,0.00,24.66,4.67,0.00,0.00,0.00,0.00,13.25,0.00,0.00,2.86,16.33,0.00,4.92,1.48,6.91,0.00,0.00,0.57
1,39.20,32.91,10.00,17.36,14.64,0.00,0.00,1.71,24.41,0.00,0.00,6.58,19.14,0.00,24.66,4.14,0.00,0.00,0.00,0.00,13.12,0.00,0.00,2.84,16.27,0.00,4.92,1.45,6.46,0.00,0.00,0.52
1,38.14,31.65,6.00,16.48,14.46,0.00,0.00,1.61,24.10,0.00,0.00,6.17,18.76,0.00,23.29,3.96,0.00,0.00,0.00,0.00,13.52,0.00,0.00,2.91,15.99,0.00,4.92,1.38,6.56,0.00,0.00,0.53
1,38.82,30.38,6.00,16.27,14.46,0.00,0.00,1.63,24.64,0.00,0.00,6.27,19.56,0.00,24.66,4.33,0.00,0.00,0.00,0.00,13.40,0.00,0.00,2.84,16.01,0.00,4.92,1.39,6.75,0.00,0.00,0.56
1,37.74,27.85,6.00,15.57,14.71,0.00,0.00,1.68,24.32,0.00,0.00,5.77,18.86,0.00,20.55,4.00,0.00,0.00,0.00,0.00,13.53,0.00,0.00,2.90,15.88,0.00,4.92,1.38,6.69,0.00,0.00,0.57
1,36.86,26.58,6.00,14.51,14.60,0.00,0.00,1.69,22.79,0.00,0.00,5.10,19.01,0.00,20.55,4.02,0.00,0.00,0.00,0.00,13.63,0.00,0.00,2.94,16.22,0.00,4.92,1.40,6.62,0.00,0.00,0.56
1,35.58,24.05,6.00,14.02,14.56,0.00,0.00,1.66,23.08,0.00,0.00,5.09,19.24,0.00,23.29,4.04,0.00,0.00,0.00,0.00,13.52,0.00,0.00,2.87,16.99,0.00,6.56,1.50,6.59,0.00,0.00,0.55
1,36.53,26.58,6.00,14.70,14.42,0.00,0.00,1.62,22.91,0.00,0.00,4.68,18.84,0.00,23.29,3.74,0.00,0.00,0.00,0.00,13.78,0.00,0.00,2.96,16.65,0.00,4.92,1.44,6.49,0.00,0.00,0.55
1,37.94,29.11,6.00,14.98,14.57,0.00,0.00,1.63,23.39,0.00,0.00,4.78,18.84,0.00,23.29,3.76,0.00,0.00,0.00,0.00,13.85,0.00,0.00,3.02,17.29,0.00,6.56,1.50,6.64,0.00,0.00,0.57
1,37.87,29.11,4.00,14.97,14.36,0.00,0.00,1.57,24.00,0.00,0.00,4.93,18.39,0.00,21.92,3.58,0.00,0.00,0.00,0.00,13.36,0.00,0.00,2.90,17.28,0.00,6.56,1.49,6.67,0.00,0.00,0.57
1,36.25,27.85,4.00,13.67,14.07,0.00,0.00,1.52,23.83,0.00,0.00,4.73,18.41,0.00,23.29,3.58,0.00,0.00,0.00,0.00,13.38,0.00,0.00,2.96,16.98,0.00,6.56,1.42,6.71,0.00,0.00,0.57
1,37.06,27.85,4.00,13.87,14.15,0.00,0.00,1.52,24.25,0.00,0.00,4.63,18.82,0.00,23.29,3.73,0.00,0.00,0.00,0.00,13.45,0.00,0.00,2.96,17.04,0.00,6.56,1.42,6.86,0.00,0.00,0.59
1,37.22,27.85,4.00,14.01,14.58,0.00,0.00,1.61,24.19,0.00,0.00,4.57,18.80,0.00,24.66,3.70,0.00,0.00,0.00,0.00,13.35,0.00,0.00,2.94,16.52,0.00,4.92,1.36,6.75,0.00,0.00,0.59
1,38.58,29.11,4.00,14.44,14.58,0.00,0.00,1.61,23.86,0.00,0.00,4.28,18.72,0.00,24.66,3.53,0.00,0.00,0.00,0.00,13.24,0.00,0.00,2.86,16.33,0.00,4.92,1.34,6.69,0.00,0.00,0.58
1,39.94,30.38,4.00,15.09,14.34,0.00,0.00,1.58,24.16,0.00,0.00,4.29,19.34,0.00,26.03,3.62,0.00,0.00,0.00,0.00,13.57,0.00,0.00,2.93,16.19,0.00,4.92,1.31,6.97,0.00,0.00,0.60
1,39.78,30.38,4.00,15.20,14.66,0.00,0.00,1.63,24.30,0.00,0.00,4.17,19.51,0.00,26.03,3.66,0.00,0.00,0.00,0.00,13.73,0.00,0.00,2.95,16.19,0.00,4.92,1.30,6.96,0.00,0.00,0.63
1,38.03,26.58,2.00,14.06,14.10,0.00,0.00,1.56,24.06,0.00,0.00,4.22,19.37,0.00,26.03,3.50,0.00,0.00,0.00,0.00,13.70,0.00,0.00,3.00,16.47,0.00,4.92,1.33,6.66,0.00,0.00,0.57
1,34.84,22.78,0.00,11.26,14.04,0.00,0.00,1.52,24.44,0.00,0.00,4.28,19.67,0.00,26.03,3.57,0.00,0.00,0.00,0.00,12.84,0.00,0.00,2.44,16.81,0.00,4.92,1.35,6.74,0.00,0.00,0.61
1,33.30,20.25,0.00,9.58,14.03,0.00,0.00,1.51,23.84,0.00,0.00,4.29,19.46,0.00,24.66,3.53,0.00,0.00,0.00,0.00,12.80,0.00,0.00,2.39,16.80,0.00,4.92,1.35,6.65,0.00,0.00,0.60
1,32.46,17.72,0.00,9.00,13.79,0.00,0.00,1.51,23.75,0.00,0.00,4.30,18.72,0.00,21.92,3.35,0.00,0.00,0.00,0.00,12.06,0.00,0.00,2.16,17.04,0.00,4.92,1.38,6.66,0.00,0.00,0.60
1,34.22,20.25,2.00,9.71,13.93,0.00,0.00,1.53,23.99,0.00,0.00,4.34,18.85,0.00,23.29,3.37,0.00,0.00,0.00,0.00,11.83,0.00,0.00,1.90,17.44,0.00,6.56,1.41,6.56,0.00,0.00,0.59
1,34.43,21.52,2.00,9.79,13.51,0.00,0.00,1.42,24.23,0.00,0.00,4.32,18.67,0.00,23.29,3.30,0.00,0.00,0.00,0.00,12.47,0.00,0.00,2.19,16.98,0.00,4.92,1.29,6.26,0.00,0.00,0.52
1,35.73,24.05,2.00,10.30,13.41,0.00,0.00,1.42,23.89,0.00,0.00,4.25,18.62,0.00,21.92,3.23,0.00,0.00,0.00,0.00,12.59,0.00,0.00,2.25,17.01,0.00,4.92,1.29,6.82,0.00,0.00,0.56
1,38.07,27.85,4.00,11.87,13.27,0.00,0.00,1.41,23.77,0.00,0.00,4.36,18.41,0.00,20.55,3.22,0.00,0.00,0.00,0.00,12.22,0.00,0.00,2.16,17.49,0.00,4.92,1.36,7.11,0.00,0.00,0.62
1,38.42,29.11,6.00,12.90,13.20,0.00,0.00,1.39,23.86,0.00,0.00,4.33,18.07,0.00,20.55,3.06,0.00,0.00,0.00,0.00,13.03,0.00,0.00,2.47,17.72,0.00,4.92,1.40,6.91,0.00,0.00,0.61
1,37.44,27.85,6.00,12.67,12.78,0.00,0.00,1.31,23.42,0.00,0.00,4.37,18.95,0.00,26.03,3.22,0.00,0.00,0.00,0.00,12.84,0.00,0.00,2.40,17.96,0.00,4.92,1.42,6.83,0.00,0.00,0.60
1,36.91,27.85,6.00,12.58,13.08,0.00,0.00,1.34,23.38,0.00,0.00,4.37,19.04,0.00,26.03,3.19,0.00,0.00,0.00,0.00,12.82,0.00,0.00,2.33,18.16,0.00,4.92,1.46,6.88,0.00,0.00,0.61
1,37.53,29.11,6.00,12.86,12.73,0.00,0.00,1.29,23.20,0.00,0.00,4.30,18.03,0.00,23.29,3.01,0.00,0.00,0.00,0.00,12.86,0.00,0.00,2.34,16.94,0.00,3.28,1.30,6.31,0.00,0.00,0.53
1,37.63,29.11,6.00,12.94,12.54,0.00,0.00,1.28,22.23,0.00,0.00,4.07,18.38,0.00,23.29,3.18,0.00,0.00,0.00,0.00,12.69,0.00,0.00,2.36,16.91,0.00,3.28,1.31,6.47,0.00,0.00,0.54
1,37.11,27.85,6.00,12.58,12.58,0.00,0.00,1.29,22.39,0.00,0.00,3.97,18.01,0.00,20.55,3.11,0.00,0.00,0.00,0.00,12.21,0.00,0.00,2.11,16.36,0.00,1.64,1.24,6.34,0.00,0.00,0.54
1,36.98,26.58,6.00,12.40,12.33,0.00,0.00,1.28,21.10,0.00,0.00,3.56,18.36,0.00,24.66,3.21,0.00,0.00,0.00,0.00,12.54,0.00,0.00,2.17,16.21,0.00,1.64,1.23,6.54,0.00,0.00,0.54
1,37.26,27.85,6.00,12.44,12.03,0.00,0.00,1.25,20.81,0.00,0.00,3.47,18.57,0.00,24.66,3.34,0.00,0.00,0.00,0.00,11.93,0.00,0.00,2.03,16.41,0.00,1.64,1.27,6.69,0.00,0.00,0.56
1,36.61,27.85,6.00,12.14,12.17,0.00,0.00,1.29,20.80,0.00,0.00,3.55,18.64,0.00,24.66,3.30,0.00,0.00,0.00,0.00,12.07,0.00,0.00,2.02,16.41,0.00,1.64,1.24,6.67,0.00,0.00,0.56
1,36.16,27.85,6.00,12.02,11.80,0.00,0.00,1.19,21.15,0.00,0.00,3.76,19.26,0.00,27.40,3.47,0.00,0.00,0.00,0.00,12.25,0.00,0.00,2.04,16.21,0.00,1.64,1.21,6.55,0.00,0.00,0.53
1,36.23,29.11,6.00,12.77,11.71,0.00,0.00,1.18,21.11,0.00,0.00,3.76,18.98,0.00,26.03,3.31,0.00,0.00,0.00,0.00,12.42,0.00,0.00,2.15,16.62,0.00,1.64,1.26,6.52,0.00,0.00,0.53
1,35.86,27.85,6.00,12.55,11.60,0.00,0.00,1.16,21.10,0.00,0.00,3.79,19.60,0.00,30.14,3.47,0.00,0.00,0.00,0.00,12.11,0.00,0.00,2.09,16.82,0.00,1.64,1.26,6.46,0.00,0.00,0.53
1,35.78,27.85,6.00,12.37,11.67,0.00,0.00,1.19,20.57,0.00,0.00,3.61,19.30,0.00,30.14,3.35,0.00,0.00,0.00,0.00,12.44,0.00,0.00,2.19,17.09,0.00,1.64,1.28,6.36,0.00,0.00,0.49
1,36.61,30.38,6.00,13.07,11.93,0.00,0.00,1.20,20.36,0.00,0.00,3.47,20.03,0.00,32.88,3.61,0.00,0.00,0.00,0.00,12.36,0.00,0.00,2.20,17.34,0.00,1.64,1.30,6.56,0.00,0.00,0.50
1,36.85,30.38,6.00,13.37,11.85,0.00,0.00,1.20,20.62,0.00,0.00,3.56,20.07,0.00,35.62,3.59,0.00,0.00,0.00,0.00,12.37,0.00,0.00,2.21,17.00,0.00,1.64,1.28,6.16,0.00,0.00,0.43
1,37.26,30.38,6.00,13.56,11.59,0.00,0.00,1.16,20.26,0.00,0.00,3.39,20.82,0.00,39.73,3.75,0.00,0.00,0.00,0.00,12.30,0.00,0.00,2.21,16.86,0.00,1.64,1.27,6.15,0.00,0.00,0.43
1,38.34,31.65,6.00,14.44,11.79,0.00,0.00,1.17,20.37,0.00,0.00,3.45,21.34,0.00,41.10,3.93,0.00,0.00,0.00,0.00,12.31,0.00,0.00,2.16,16.70,0.00,1.64,1.24,6.41,0.00,0.00,0.46
1,38.59,32.91,6.00,14.65,11.32,0.00,0.00,1.08,20.44,0.00,0.00,3.48,21.57,0.00,42.47,3.94,0.00,0.00,0.00,0.00,12.47,0.00,0.00,2.20,16.50,0.00,0.00,1.19,6.58,0.00,0.00,0.48
1,37.00,29.11,4.00,13.77,11.39,0.00,0.00,1.09,20.94,0.00,0.00,3.74,21.96,0.00,43.84,4.17,0.00,0.00,0.00,0.00,11.99,0.00,0.00,2.02,16.51,0.00,0.00,1.19,6.66,0.00,0.00,0.50
1,36.19,25.32,4.00,13.18,11.38,0.00,0.00,1.10,20.65,0.00,0.00,3.72,22.40,0.00,47.95,4.23,0.00,0.00,0.00,0.00,11.77,0.00,0.00,1.98,16.31,0.00,0.00,1.18,6.39,0.00,0.00,0.46
1,34.68,21.52,2.00,12.50,11.82,0.00,0.00,1.15,21.00,0.00,0.00,3.77,22.69,0.00,47.95,4.33,0.00,0.00,0.00,0.00,11.52,0.00,0.00,1.93,15.53,0.00,0.00,1.10,6.27,0.00,0.00,0.44
1,32.45,17.72,0.00,9.90,11.75,0.00,0.00,1.16,21.04,0.00,0.00,3.77,22.32,0.00,47.95,4.14,0.00,0.00,0.00,0.00,11.11,0.00,0.00,1.74,15.35,0.00,0.00,1.08,6.38,0.00,0.00,0.44
1,33.40,20.25,0.00,10.68,11.79,0.00,0.00,1.17,20.65,0.00,0.00,3.58,22.01,0.00,43.84,4.03,0.00,0.00,0.00,0.00,10.81,0.00,0.00,1.65,15.28,0.00,0.00,1.07,6.24,0.00,0.00,0.43
1,33.41,20.25,0.00,10.50,11.78,0.00,0.00,1.16,20.99,0.00,0.00,3.62,21.73,0.00,43.84,3.96,0.00,0.00,0.00,0.00,10.42,0.00,0.00,1.57,14.86,0.00,0.00,0.99,6.18,0.00,0.00,0.40
1,34.02,20.25,0.00,11.17,11.98,0.00,0.00,1.23,21.78,0.00,0.00,3.81,21.99,0.00,45.21,4.05,0.00,0.00,0.00,0.00,10.48,0.00,0.00,1.61,15.38,0.00,0.00,1.05,6.42,0.00,0.00,0.42
1,33.43,18.99,0.00,11.05,12.67,0.00,0.00,1.32,22.78,0.00,0.00,3.99,22.04,0.00,45.21,4.00,0.00,0.00,0.00,0.00,10.42,0.00,0.00,1.55,15.94,0.00,1.64,1.12,6.47,0.00,0.00,0.43
1,33.47,20.25,0.00,11.26,12.77,0.00,0.00,1.36,22.39,0.00,0.00,3.88,22.26,0.00,45.21,4.03,0.00,0.00,0.00,0.00,10.43,0.00,0.00,1.59,15.97,0.00,1.64,1.11,6.42,0.00,0.00,0.41
1,34.12,21.52,0.00,11.69,13.19,0.00,0.00,1.41,22.31,0.00,0.00,3.86,21.78,0.00,41.10,3.95,0.00,0.00,0.00,0.00,10.62,0.00,0.00,1.62,15.89,0.00,1.64,1.10,6.36,0.00,0.00,0.42
1,32.72,18.99,0.00,11.08,13.45,0.00,0.00,1.47,22.70,0.00,0.00,4.02,21.16,0.00,38.36,3.65,0.00,0.00,0.00,0.00,10.67,0.00,0.00,1.59,15.73,0.00,1.64,1.08,6.10,0.00,0.00,0.39
1,33.84,20.25,0.00,11.35,13.17,0.00,0.00,1.39,22.48,0.00,0.00,4.05,21.63,0.00,41.10,3.76,0.00,0.00,0.00,0.00,11.32,0.00,0.00,1.73,15.74,0.00,1.64,1.09,6.10,0.00,0.00,0.40
1,34.35,21.52,0.00,11.55,13.36,0.00,0.00,1.42,22.69,0.00,0.00,3.94,20.88,0.00,36.99,3.61,0.00,0.00,0.00,0.00,11.49,0.00,0.00,1.80,16.04,0.00,1.64,1.10,6.09,0.00,0.00,0.41
1,34.07,21.52,0.00,10.82,13.61,0.00,0.00,1.46,23.02,0.00,0.00,4.00,20.63,0.00,36.99,3.53,0.00,0.00,0.00,0.00,11.20,0.00,0.00,1.70,15.60,0.00,1.64,1.06,6.15,0.00,0.00,0.41
1,34.15,21.52,0.00,10.68,13.75,0.00,0.00,1.47,22.86,0.00,0.00,4.02,21.30,0.00,38.36,3.86,0.00,0.00,0.00,0.00,11.04,0.00,0.00,1.63,15.58,0.00,1.64,1.08,6.37,0.00,0.00,0.45
1,34.45,22.78,2.00,11.83,13.27,0.00,0.00,1.39,23.08,0.00,0.00,3.98,20.81,0.00,36.99,3.76,0.00,0.00,0.00,0.00,10.81,0.00,0.00,1.61,15.51,0.00,1.64,1.07,6.36,0.00,0.00,0.46
1,33.74,21.52,2.00,11.46,13.42,0.00,0.00,1.42,23.75,2.56,0.00,4.70,20.11,0.00,34.25,3.53,0.00,0.00,0.00,0.00,10.67,0.00,0.00,1.56,14.99,0.00,1.64,1.01,6.73,0.00,0.00,0.53
1,32.88,20.25,2.00,10.59,13.28,0.00,0.00,1.41,23.32,2.56,0.00,4.62,19.49,0.00,30.14,3.46,0.00,0.00,0.00,0.00,10.23,0.00,0.00,1.48,14.84,0.00,1.64,0.98,6.99,0.00,0.00,0.56
1,32.96,20.25,2.00,10.53,13.50,0.00,0.00,1.46,24.35,2.56,0.00,4.78,18.59,0.00,26.03,3.26,0.00,0.00,0.00,0.00,10.10,0.00,0.00,1.47,14.95,0.00,1.64,1.00,7.02,0.00,0.00,0.56
1,32.51,21.52,2.00,10.01,13.59,0.00,0.00,1.49,24.65,2.56,0.00,5.18,18.13,0.00,24.66,3.05,0.00,0.00,0.00,0.00,10.44,0.00,0.00,1.54,14.67,0.00,1.64,0.97,6.77,0.00,0.00,0.55
1,31.01,18.99,2.00,8.94,13.31,0.00,0.00,1.44,24.58,2.56,0.00,5.31,18.02,0.00,24.66,3.14,0.00,0.00,0.00,0.00,10.62,0.00,0.00,1.61,14.49,0.00,1.64,0.96,6.74,0.00,0.00,0.52
1,32.48,21.52,2.00,9.36,13.57,0.00,0.00,1.47,25.00,2.56,0.00,5.49,17.49,0.00,23.29,2.86,0.00,0.00,0.00,0.00,10.20,0.00,0.00,1.47,14.24,0.00,1.64,0.94,6.65,0.00,0.00,0.50
1,33.89,24.05,2.00,10.30,13.76,0.00,0.00,1.49,24.97,2.56,0.00,5.50,17.74,0.00,21.92,3.06,0.00,0.00,0.00,0.00,10.50,0.00,0.00,1.57,14.37,0.00,1.64,0.95,6.76,0.00,0.00,0.53
1,33.38,24.05,2.00,10.06,13.49,0.00,0.00,1.46,24.58,2.56,0.00,5.52,17.62,0.00,21.92,3.00,0.00,0.00,0.00,0.00,10.64,0.00,0.00,1.64,14.66,0.00,1.64,0.97,6.55,0.00,0.00,0.50
1,32.82,24.05,2.00,9.97,13.39,0.00,0.00,1.42,25.31,2.56,0.00,5.96,18.47,0.00,23.29,3.35,0.00,0.00,0.00,0.00,10.81,0.00,0.00,1.66,14.88,0.00,1.64,0.98,6.40,0.00,0.00,0.48
1,32.88,24.05,2.00,9.70,13.45,0.00,0.00,1.44,25.65,2.56,0.00,5.97,18.41,0.00,24.66,3.34,0.00,0.00,0.00,0.00,10.45,0.00,0.00,1.55,14.42,0.00,1.64,0.93,6.35,0.00,0.00,0.47
1,33.12,24.05,2.00,9.76,13.95,0.00,0.00,1.54,25.70,2.56,0.00,5.93,18.48,0.00,24.66,3.44,0.00,0.00,0.00,0.00,10.82,0.00,0.00,1.61,15.26,0.00,3.28,1.06,6.73,0.00,0.00,0.55
1,31.91,21.52,2.00,8.74,13.89,0.00,0.00,1.52,25.04,2.56,0.00,5.80,18.50,0.00,24.66,3.47,0.00,0.00,0.00,0.00,10.86,0.00,0.00,1.60,15.11,0.00,3.28,1.05,7.05,0.00,0.00,0.60
1,33.37,24.05,2.00,9.36,13.31,0.00,0.00,1.45,24.85,2.56,0.00,5.74,19.05,0.00,26.03,3.52,0.00,0.00,0.00,0.00,10.83,0.00,0.00,1.62,14.38,0.00,1.64,0.97,7.02,0.00,0.00,0.60
1,33.45,24.05,2.00,9.22,13.52,0.00,0.00,1.48,24.53,2.56,0.00,5.79,19.76,0.00,30.14,3.85,0.00,0.00,0.00,0.00,10.75,0.00,0.00,1.55,14.14,0.00,1.64,0.94,7.07,0.00,0.00,0.59
1,32.69,22.78,2.00,8.79,13.12,0.00,0.00,1.40,25.43,2.56,0.00,6.01,19.99,0.00,31.51,3.90,0.00,0.00,0.00,0.00,10.65,0.00,0.00,1.56,14.37,0.00,1.64,0.95,7.04,0.00,0.00,0.59
1,33.47,22.78,2.00,8.90,12.92,0.00,0.00,1.36,25.01,2.56,0.00,5.99,20.33,0.00,34.25,4.06,0.00,0.00,0.00,0.00,10.68,0.00,0.00,1.55,14.42,0.00,1.64,0.94,7.34,0.00,0.00,0.63
1,33.65,22.78,2.00,8.84,13.32,0.00,0.00,1.44,25.67,2.56,0.00,5.94,20.29,0.00,31.51,4.11,0.00,0.00,0.00,0.00,10.29,0.00,0.00,1.47,14.55,0.00,1.64,0.98,7.55,0.00,0.00,0.63
1,33.52,22.78,2.00,8.98,13.20,0.00,0.00,1.44,25.00,2.56,0.00,5.72,20.39,0.00,32.88,4.04,0.00,0.00,0.00,0.00,10.02,0.00,0.00,1.41,14.46,0.00,1.64,0.99,7.41,0.00,0.00,0.62
1,32.85,21.52,2.00,8.83,13.38,0.00,0.00,1.47,25.06,2.56,0.00,5.81,20.51,0.00,34.25,4.09,0.00,0.00,0.00,0.00,10.04,0.00,0.00,1.40,14.43,0.00,1.64,1.00,7.69,0.00,0.00,0.64
1,33.22,21.52,2.00,8.95,13.59,0.00,0.00,1.53,25.04,2.56,0.00,5.72,20.01,0.00,31.51,3.85,0.00,0.00,0.00,0.00,9.98,0.00,0.00,1.38,14.57,0.00,1.64,1.02,7.53,0.00,0.00,0.62
1,32.04,18.99,0.00,7.71,13.47,0.00,0.00,1.52,24.99,2.56,0.00,5.81,20.24,0.00,30.14,3.88,0.00,0.00,0.00,0.00,10.27,0.00,0.00,1.51,14.50,0.00,1.64,1.01,7.58,0.00,0.00,0.63
1,32.81,18.99,0.00,7.84,13.38,0.00,0.00,1.49,23.83,0.00,0.00,5.12,20.78,0.00,32.88,4.12,0.00,0.00,0.00,0.00,10.24,0.00,0.00,1.53,14.47,0.00,1.64,1.02,7.37,0.00,0.00,0.62
1,32.91,18.99,0.00,8.04,13.84,0.00,0.00,1.58,23.87,0.00,0.00,5.11,21.10,0.00,32.88,4.15,0.00,0.00,0.00,0.00,10.64,0.00,0.00,1.57,14.46,0.00,1.64,1.03,6.83,0.00,0.00,0.52
1,33.46,20.25,0.00,8.37,14.02,0.00,0.00,1.56,23.47,0.00,0.00,5.10,21.28,0.00,32.88,4.18,0.00,0.00,0.00,0.00,10.50,0.00,0.00,1.57,14.49,0.00,1.64,1.03,6.81,0.00,0.00,0.52
1,34.75,22.78,2.00,9.08,13.50,0.00,0.00,1.49,22.87,0.00,0.00,4.61,21.12,0.00,31.51,4.11,0.00,0.00,0.00,0.00,10.28,0.00,0.00,1.51,14.81,0.00,1.64,1.09,6.87,0.00,0.00,0.52
1,35.12,22.78,2.00,9.30,13.69,0.00,0.00,1.52,22.70,0.00,0.00,4.42,20.81,0.00,30.14,3.98,0.00,0.00,0.00,0.00,10.06,0.00,0.00,1.43,14.71,0.00,1.64,1.08,7.10,0.00,0.00,0.58
1,34.88,22.78,2.00,9.24,13.33,0.00,0.00,1.51,22.34,0.00,0.00,4.20,21.20,0.00,32.88,4.08,0.00,0.00,0.00,0.00,9.84,0.00,0.00,1.38,14.30,0.00,1.64,1.05,6.96,0.00,0.00,0.56
1,33.11,18.99,2.00,8.85,12.98,0.00,0.00,1.48,22.40,0.00,0.00,4.21,21.03,0.00,34.25,3.98,0.00,0.00,0.00,0.00,9.67,0.00,0.00,1.38,14.14,0.00,1.64,1.02,6.82,0.00,0.00,0.54
1,33.74,20.25,2.00,8.72,12.69,0.00,0.00,1.43,22.63,0.00,0.00,3.97,21.42,0.00,35.62,4.05,0.00,0.00,0.00,0.00,9.70,0.00,0.00,1.30,14.09,0.00,1.64,1.03,7.01,0.00,0.00,0.55
1,34.34,21.52,2.00,8.99,13.03,0.00,0.00,1.47,21.42,0.00,0.00,3.36,20.35,0.00,32.88,3.71,0.00,0.00,0.00,0.00,9.53,0.00,0.00,1.34,14.31,0.00,1.64,1.07,7.21,0.00,0.00,0.56
1,33.99,20.25,2.00,8.97,13.64,0.00,0.00,1.63,21.02,0.00,0.00,3.32,21.48,0.00,34.25,4.17,0.00,0.00,0.00,0.00,9.69,0.00,0.00,1.39,14.75,0.00,1.64,1.12,7.41,0.00,0.00,0.59
1,33.52,20.25,2.00,9.04,13.03,0.00,0.00,1.48,21.07,0.00,0.00,3.34,21.36,0.00,34.25,4.10,0.00,0.00,0.00,0.00,9.33,0.00,0.00,1.35,14.11,0.00,0.00,1.01,7.11,0.00,0.00,0.55
1,34.15,21.52,2.00,9.27,12.74,0.00,0.00,1.42,21.08,0.00,0.00,3.45,21.11,0.00,34.25,3.98,0.00,0.00,0.00,0.00,9.59,0.00,0.00,1.41,14.62,0.00,0.00,1.07,6.96,0.00,0.00,0.53
1,33.70,21.52,2.00,9.31,13.12,0.00,0.00,1.46,21.09,0.00,0.00,3.43,21.29,0.00,35.62,4.05,0.00,0.00,0.00,0.00,9.63,0.00,0.00,1.41,14.53,0.00,0.00,1.06,7.23,0.00,0.00,0.56
1,32.10,18.99,2.00,8.61,12.88,0.00,0.00,1.38,22.56,0.00,0.00,3.99,20.48,0.00,32.88,3.88,0.00,0.00,0.00,0.00,9.50,0.00,0.00,1.39,14.28,0.00,0.00,1.03,7.34,0.00,0.00,0.57
1,33.22,18.99,2.00,9.63,12.86,0.00,0.00,1.40,21.71,0.00,0.00,3.87,20.78,0.00,34.25,3.97,0.00,0.00,0.00,0.00,9.52,0.00,0.00,1.40,14.53,0.00,0.00,1.08,7.50,0.00,0.00,0.58
1,33.25,18.99,2.00,9.78,13.53,0.00,0.00,1.51,23.34,0.00,0.00,4.32,20.83,0.00,34.25,3.91,0.00,0.00,0.00,0.00,9.61,0.00,0.00,1.46,14.65,0.00,0.00,1.10,7.27,0.00,0.00,0.58
1,33.38,18.99,2.00,9.75,13.38,0.00,0.00,1.48,23.40,0.00,0.00,4.39,20.44,0.00,32.88,3.93,0.00,0.00,0.00,0.00,9.44,0.00,0.00,1.42,14.29,0.00,0.00,1.06,7.18,0.00,0.00,0.57
1,32.91,16.46,2.00,9.64,13.43,0.00,0.00,1.49,23.42,0.00,0.00,4.61,20.53,0.00,34.25,4.02,0.00,0.00,0.00,0.00,9.44,0.00,0.00,1.47,14.51,0.00,0.00,1.09,7.18,0.00,0.00,0.57
1,32.99,17.72,2.00,9.73,13.58,0.00,0.00,1.59,23.08,0.00,0.00,4.51,20.77,0.00,34.25,4.09,0.00,0.00,0.00,0.00,9.74,0.00,0.00,1.56,15.08,0.00,3.28,1.23,6.98,0.00,0.00,0.55
1,32.60,17.72,2.00,9.69,13.36,0.00,0.00,1.53,22.67,0.00,0.00,4.49,20.46,0.00,32.88,4.01,0.00,0.00,0.00,0.00,9.81,0.00,0.00,1.57,15.06,0.00,3.28,1.21,6.83,0.00,0.00,0.53
1,32.55,18.99,2.00,9.57,13.55,0.00,0.00,1.56,23.07,0.00,0.00,4.58,20.80,0.00,34.25,4.17,0.00,0.00,0.00,0.00,9.58,0.00,0.00,1.46,15.80,0.00,4.92,1.31,6.36,0.00,0.00,0.48
1,33.03,18.99,2.00,9.75,13.65,0.00,0.00,1.59,23.05,0.00,0.00,4.42,20.10,0.00,34.25,3.93,0.00,0.00,0.00,0.00,9.52,0.00,0.00,1.43,15.98,0.00,4.92,1.36,6.39,0.00,0.00,0.48
1,31.60,18.99,2.00,9.39,13.25,0.00,0.00,1.50,23.37,0.00,0.00,4.52,19.80,0.00,34.25,3.85,0.00,0.00,0.00,0.00,9.09,0.00,0.00,1.36,15.80,0.00,4.92,1.34,6.38,0.00,0.00,0.48
1,31.92,18.99,2.00,9.46,13.20,0.00,0.00,1.51,23.15,0.00,0.00,4.49,19.91,0.00,34.25,3.90,0.00,0.00,0.00,0.00,9.11,0.00,0.00,1.34,15.96,0.00,4.92,1.35,6.30,0.00,0.00,0.47
1,29.46,13.92,0.00,8.58,13.06,0.00,0.00,1.49,23.42,0.00,0.00,4.59,19.91,0.00,34.25,3.94,0.00,0.00,0.00,0.00,9.00,0.00,0.00,1.35,15.91,0.00,4.92,1.34,6.24,0.00,0.00,0.47
1,28.37,12.66,0.00,7.80,14.09,0.00,0.00,1.75,24.12,0.00,0.00,4.68,20.18,0.00,34.25,4.01,0.00,0.00,0.00,0.00,9.02,0.00,0.00,1.35,17.23,0.00,6.56,1.65,6.01,0.00,0.00,0.42
1,27.95,11.39,0.00,7.77,15.06,0.00,0.00,2.18,24.73,0.00,0.00,4.85,19.81,0.00,30.14,3.91,0.00,0.00,0.00,0.00,9.24,0.00,0.00,1.40,18.09,0.00,8.20,1.89,6.11,0.00,0.00,0.44
1,28.04,12.66,0.00,7.54,16.80,0.00,0.00,2.70,25.37,0.00,0.00,5.09,19.16,0.00,26.03,3.76,0.00,0.00,0.00,0.00,9.66,0.00,0.00,1.48,19.76,0.00,9.84,2.28,6.05,0.00,0.00,0.44
1,28.47,13.92,0.00,7.73,18.16,0.00,0.00,3.42,25.34,0.00,0.00,5.22,19.07,0.00,26.03,3.76,0.00,0.00,0.00,0.00,9.95,0.00,0.00,1.52,20.97,0.00,11.48,2.82,5.95,0.00,0.00,0.45
1,29.59,16.46,0.00,8.44,18.40,0.00,0.00,3.64,25.97,0.00,0.00,5.32,19.14,0.00,26.03,3.76,0.00,0.00,0.00,0.00,10.36,0.00,0.00,1.60,21.41,0.00,11.48,2.87,5.84,0.00,0.00,0.43
1,29.25,15.19,0.00,8.73,18.05,0.00,0.00,3.58,26.05,0.00,0.00,5.46,18.15,0.00,23.29,3.36,0.00,0.00,0.00,0.00,10.84,0.00,0.00,1.80,21.17,0.00,11.48,2.86,5.48,0.00,0.00,0.39
1,30.24,16.46,0.00,9.38,18.45,0.00,0.00,3.73,26.51,0.00,0.00,5.83,18.47,0.00,24.66,3.59,0.00,0.00,0.00,0.00,11.45,0.00,0.00,1.92,21.48,0.00,11.48,2.89,5.28,0.00,0.00,0.35
0,29.59,15.19,0.00,9.06,18.93,0.00,0.00,3.87,27.65,0.00,0.00,6.26,18.29,0.00,23.29,3.57,0.00,0.00,0.00,0.00,12.25,0.00,0.00,2.31,21.69,0.00,11.48,2.89,4.95,0.00,0.00,0.31
0,29.74,13.92,0.00,9.09,18.80,0.00,0.00,3.86,27.94,0.00,0.00,6.48,17.97,0.00,20.55,3.58,0.00,0.00,0.00,0.00,12.18,0.00,0.00,2.30,22.02,0.00,11.48,2.92,4.65,0.00,0.00,0.27
0,30.84,16.46,0.00,9.86,18.73,0.00,0.00,3.91,27.03,0.00,0.00,6.04,17.94,0.00,19.18,3.57,0.00,0.00,0.00,0.00,12.65,0.00,0.00,2.37,22.13,0.00,11.48,2.96,4.47,0.00,0.00,0.26
0,30.29,16.46,0.00,9.73,19.01,0.00,0.00,3.94,26.66,0.00,0.00,6.13,17.47,0.00,16.44,3.27,0.00,0.00,0.00,0.00,13.08,0.00,0.00,2.66,22.11,0.00,11.48,2.98,4.35,0.00,0.00,0.25
0,30.39,17.72,0.00,9.35,18.85,0.00,0.00,3.94,25.53,0.00,0.00,5.90,17.23,0.00,15.07,3.32,0.00,0.00,0.00,0.00,13.16,0.00,0.00,2.72,21.90,0.00,11.48,2.98,4.13,0.00,0.00,0.20
0,30.37,17.72,0.00,9.34,18.96,0.00,0.00,3.98,24.96,0.00,0.00,5.66,16.74,0.00,15.07,3.08,0.00,0.00,0.00,0.00,13.13,0.00,0.00,2.68,22.09,0.00,11.48,3.03,4.02,0.00,0.00,0.19
0,30.10,17.72,0.00,9.33,18.67,0.00,0.00,3.92,25.93,0.00,0.00,5.93,16.48,0.00,13.70,3.01,0.00,0.00,0.00,0.00,12.99,0.00,0.00,2.62,22.01,0.00,11.48,3.02,3.93,0.00,0.00,0.19
0,29.13,16.46,0.00,8.89,18.29,0.00,0.00,3.81,26.19,0.00,0.00,6.05,16.01,0.00,10.96,2.86,0.00,0.00,0.00,0.00,12.92,0.00,0.00,2.60,21.53,0.00,8.20,2.91,3.94,0.00,0.00,0.19
0,29.20,16.46,0.00,8.90,18.53,0.00,0.00,3.95,26.37,0.00,0.00,6.08,15.84,0.00,12.33,2.86,0.00,0.00,0.00,0.00,12.91,0.00,0.00,2.56,21.68,0.00,8.20,2.93,3.90,0.00,0.00,0.19
0,28.71,15.19,0.00,8.65,18.85,0.00,0.00,4.10,26.43,0.00,0.00,6.03,15.22,0.00,10.96,2.66,0.00,0.00,0.00,0.00,12.68,0.00,0.00,2.55,20.94,0.00,6.56,2.87,3.86,0.00,0.00,0.19
0,27.48,15.19,0.00,8.37,19.24,0.00,0.00,4.13,26.73,0.00,0.00,6.16,15.19,0.00,8.22,2.71,0.00,0.00,0.00,0.00,12.78,0.00,0.00,2.59,21.14,0.00,6.56,2.98,3.78,0.00,0.00,0.18
0,27.46,15.19,0.00,8.27,19.20,0.00,0.00,4.13,26.65,0.00,0.00,6.14,15.37,0.00,8.22,2.82,0.00,0.00,0.00,0.00,13.06,0.00,0.00,2.59,21.17,0.00,6.56,2.97,3.71,0.00,0.00,0.18
0,27.52,15.19,0.00,8.22,19.45,0.00,0.00,4.20,26.80,0.00,0.00,6.14,15.23,0.00,8.22,2.82,0.00,0.00,0.00,0.00,13.18,0.00,0.00,2.66,20.96,0.00,6.56,2.95,3.75,0.00,0.00,0.18
0,27.63,15.19,0.00,8.23,19.60,0.00,0.00,4.21,27.06,0.00,0.00,6.38,15.97,0.00,9.59,3.02,0.00,0.00,0.00,0.00,13.07,0.00,0.00,2.65,20.70,0.00,6.56,2.93,3.77,0.00,0.00,0.18
0,28.26,15.19,0.00,8.28,19.54,0.00,0.00,4.17,26.84,0.00,0.00,6.35,16.52,0.00,12.33,3.14,0.00,0.00,0.00,0.00,13.06,0.00,0.00,2.65,20.02,0.00,6.56,2.83,3.72,0.00,0.00,0.17
0,27.96,15.19,0.00,8.35,18.37,0.00,0.00,3.76,25.72,0.00,0.00,6.08,16.62,0.00,13.70,3.20,0.00,0.00,0.00,0.00,13.09,0.00,0.00,2.63,18.46,0.00,3.28,2.37,3.49,0.00,0.00,0.14
0,27.90,15.19,0.00,8.43,16.90,0.00,0.00,3.21,24.62,0.00,0.00,5.69,16.82,0.00,15.07,3.32,0.00,0.00,0.00,0.00,13.04,0.00,0.00,2.64,18.00,0.00,1.64,2.23,3.39,0.00,0.00,0.13
0,27.25,12.66,0.00,8.36,15.74,0.00,0.00,2.39,25.10,0.00,0.00,5.82,16.74,0.00,16.44,3.26,0.00,0.00,0.00,0.00,13.18,0.00,0.00,2.74,17.24,0.00,0.00,1.72,3.26,0.00,0.00,0.12
0,24.99,8.86,0.00,7.35,15.34,0.00,0.00,2.17,25.17,0.00,0.00,5.70,16.61,0.00,16.44,3.24,0.00,0.00,0.00,0.00,12.50,0.00,0.00,2.55,17.15,0.00,0.00,1.64,3.22,0.00,0.00,0.11
0,23.05,6.33,0.00,6.01,15.57,0.00,0.00,2.22,24.50,0.00,0.00,5.59,16.24,0.00,16.44,3.04,0.00,0.00,0.00,0.00,11.86,0.00,0.00,2.35,17.27,0.00,0.00,1.63,3.35,0.00,0.00,0.12
0,22.20,5.06,0.00,5.41,15.33,0.00,0.00,2.15,24.65,0.00,0.00,5.42,15.53,0.00,13.70,2.70,0.00,0.00,0.00,0.00,11.52,0.00,0.00,2.27,17.43,0.00,3.28,1.69,3.41,0.00,0.00,0.12
0,22.26,5.06,0.00,5.39,14.82,0.00,0.00,1.99,23.44,0.00,0.00,4.97,15.82,0.00,15.07,2.77,0.00,0.00,0.00,0.00,10.88,0.00,0.00,1.86,16.91,0.00,3.28,1.67,3.42,0.00,0.00,0.12
0,22.41,5.06,0.00,5.36,15.06,0.00,0.00,2.00,23.05,0.00,0.00,4.52,15.88,0.00,16.44,2.64,0.00,0.00,0.00,0.00,10.45,0.00,0.00,1.74,16.80,0.00,3.28,1.66,3.47,0.00,0.00,0.12
0,21.21,2.53,0.00,4.39,15.12,0.00,0.00,1.98,22.65,0.00,0.00,4.44,16.07,0.00,17.81,2.74,0.00,0.00,0.00,0.00,10.31,0.00,0.00,1.75,16.69,0.00,3.28,1.64,3.41,0.00,0.00,0.12
0,21.04,1.27,0.00,4.18,14.40,0.00,0.00,1.86,23.01,0.00,0.00,4.24,15.94,0.00,19.18,2.73,0.00,0.00,0.00,0.00,9.77,0.00,0.00,1.47,16.32,0.00,3.28,1.55,3.35,0.00,0.00,0.12
0,19.56,0.00,0.00,3.70,14.67,0.00,0.00,1.93,22.58,0.00,0.00,3.97,15.63,0.00,17.81,2.57,0.00,0.00,0.00,0.00,9.83,0.00,0.00,1.53,16.72,0.00,3.28,1.61,3.26,0.00,0.00,0.12
0,19.14,0.00,0.00,3.64,14.35,0.00,0.00,1.85,22.99,0.00,0.00,4.05,15.73,0.00,17.81,2.59,0.00,0.00,0.00,0.00,9.58,0.00,0.00,1.43,16.99,0.00,4.92,1.61,3.40,0.00,0.00,0.12
0,19.06,0.00,0.00,3.54,14.45,0.00,0.00,1.88,22.41,0.00,0.00,3.66,15.55,0.00,16.44,2.60,0.00,0.00,0.00,0.00,9.88,0.00,0.00,1.47,16.65,0.00,4.92,1.56,3.30,0.00,0.00,0.11
0,18.81,0.00,0.00,3.51,14.60,0.00,0.00,1.94,22.22,0.00,0.00,3.58,15.81,0.00,17.81,2.62,0.00,0.00,0.00,0.00,9.44,0.00,0.00,1.40,16.60,0.00,4.92,1.55,3.42,0.00,0.00,0.12
0,18.21,0.00,0.00,3.41,14.52,0.00,0.00,1.88,21.83,0.00,0.00,3.55,15.48,0.00,16.44,2.47,0.00,0.00,0.00,0.00,9.59,0.00,0.00,1.40,16.59,0.00,4.92,1.53,3.42,0.00,0.00,0.12
0,18.25,0.00,0.00,3.37,13.84,0.00,0.00,1.61,22.30,0.00,0.00,3.88,15.37,0.00,16.44,2.40,0.00,0.00,0.00,0.00,9.96,0.00,0.00,1.50,16.86,0.00,4.92,1.57,3.49,0.00,0.00,0.12
0,18.10,0.00,0.00,3.35,13.81,0.00,0.00,1.64,22.53,0.00,0.00,4.00,15.37,0.00,16.44,2.43,0.00,0.00,0.00,0.00,9.94,0.00,0.00,1.46,16.67,0.00,4.92,1.45,3.49,0.00,0.00,0.12
0,18.20,0.00,0.00,3.38,14.14,0.00,0.00,1.71,23.62,0.00,0.00,4.26,15.45,0.00,17.81,2.38,0.00,0.00,0.00,0.00,9.79,0.00,0.00,1.45,16.78,0.00,4.92,1.44,3.53,0.00,0.00,0.13
0,18.11,0.00,0.00,3.52,14.03,0.00,0.00,1.77,23.44,0.00,0.00,4.13,15.63,0.00,19.18,2.42,0.00,0.00,0.00,0.00,9.72,0.00,0.00,1.41,16.92,0.00,4.92,1.45,3.51,0.00,0.00,0.13
0,17.96,0.00,0.00,3.61,14.08,0.00,0.00,1.76,22.76,0.00,0.00,4.06,15.10,0.00,17.81,2.17,0.00,0.00,0.00,0.00,9.89,0.00,0.00,1.41,17.60,0.00,4.92,1.49,3.54,0.00,0.00,0.13
0,17.67,0.00,0.00,3.57,14.15,0.00,0.00,1.74,23.37,0.00,0.00,4.13,14.14,0.00,15.07,1.92,0.00,0.00,0.00,0.00,9.96,0.00,0.00,1.45,18.02,0.00,4.92,1.62,3.55,0.00,0.00,0.13
0,17.09,0.00,0.00,3.36,14.03,0.00,0.00,1.75,23.19,0.00,0.00,4.29,13.73,0.00,13.70,1.85,0.00,0.00,0.00,0.00,9.96,0.00,0.00,1.47,18.36,0.00,4.92,1.67,3.57,0.00,0.00,0.13
0,17.08,0.00,0.00,3.24,14.33,0.00,0.00,1.85,23.19,0.00,0.00,4.25,13.83,0.00,13.70,1.87,0.00,0.00,0.00,0.00,10.07,0.00,0.00,1.49,18.08,0.00,4.92,1.61,3.54,0.00,0.00,0.13
0,16.92,0.00,0.00,3.30,14.61,0.00,0.00,1.90,22.31,0.00,0.00,3.97,14.27,0.00,12.33,2.10,0.00,0.00,0.00,0.00,10.01,0.00,0.00,1.49,17.59,0.00,4.92,1.58,3.62,0.00,0.00,0.13
0,16.90,0.00,0.00,3.26,14.55,0.00,0.00,1.94,22.08,0.00,0.00,4.11,14.49,0.00,12.33,2.19,0.00,0.00,0.00,0.00,9.75,0.00,0.00,1.31,17.19,0.00,4.92,1.51,3.61,0.00,0.00,0.13
0,17.32,0.00,0.00,3.28,14.36,0.00,0.00,1.83,22.02,0.00,0.00,4.10,14.41,0.00,12.33,2.16,0.00,0.00,0.00,0.00,10.01,0.00,0.00,1.36,17.17,0.00,4.92,1.49,3.55,0.00,0.00,0.12
0,16.74,0.00,0.00,3.13,14.37,0.00,0.00,1.81,22.20,0.00,0.00,4.07,14.33,0.00,13.70,2.16,0.00,0.00,0.00,0.00,9.73,0.00,0.00,1.28,16.91,0.00,1.64,1.49,3.41,0.00,0.00,0.12
0,16.51,0.00,0.00,3.02,14.34,0.00,0.00,1.80,21.69,0.00,0.00,4.00,14.12,0.00,12.33,2.11,0.00,0.00,0.00,0.00,9.69,0.00,0.00,1.29,17.09,0.00,1.64,1.50,3.36,0.00,0.00,0.11
0,16.36,0.00,0.00,3.12,14.29,0.00,0.00,1.78,22.33,0.00,0.00,4.23,14.32,0.00,12.33,2.22,0.00,0.00,0.00,0.00,9.92,0.00,0.00,1.33,17.10,0.00,1.64,1.47,3.27,0.00,0.00,0.11
0,16.22,0.00,0.00,3.02,14.29,0.00,0.00,1.78,21.86,0.00,0.00,4.13,14.54,0.00,12.33,2.29,0.00,0.00,0.00,0.00,10.18,0.00,0.00,1.37,17.45,0.00,3.28,1.48,3.07,0.00,0.00,0.09
0,15.46,0.00,0.00,2.75,14.34,0.00,0.00,1.78,22.37,0.00,0.00,4.60,14.54,0.00,10.96,2.24,0.00,0.00,0.00,0.00,10.09,0.00,0.00,1.34,17.68,0.00,4.92,1.54,3.16,0.00,0.00,0.10
0,16.22,0.00,0.00,2.85,14.06,0.00,0.00,1.70,22.58,0.00,0.00,4.69,14.44,0.00,10.96,2.18,0.00,0.00,0.00,0.00,10.24,0.00,0.00,1.37,17.38,0.00,4.92,1.49,3.20,0.00,0.00,0.10
0,16.50,0.00,0.00,2.95,14.47,0.00,0.00,1.77,23.56,0.00,0.00,5.22,14.17,0.00,10.96,2.16,0.00,0.00,0.00,0.00,10.41,0.00,0.00,1.39,17.01,0.00,3.28,1.44,3.12,0.00,0.00,0.10
0,15.56,0.00,0.00,2.69,14.53,0.00,0.00,1.76,22.67,0.00,0.00,5.10,14.50,0.00,12.33,2.18,0.00,0.00,0.00,0.00,10.10,0.00,0.00,1.37,17.47,0.00,3.28,1.52,3.27,0.00,0.00,0.10
0,15.45,0.00,0.00,2.62,14.46,0.00,0.00,1.75,22.42,0.00,0.00,5.03,14.72,0.00,12.33,2.23,0.00,0.00,0.00,0.00,10.42,0.00,0.00,1.42,17.91,0.00,3.28,1.57,3.18,0.00,0.00,0.10
0,15.89,0.00,0.00,2.70,14.39,0.00,0.00,1.74,23.16,0.00,0.00,5.20,15.13,0.00,13.70,2.36,0.00,0.00,0.00,0.00,10.01,0.00,0.00,1.40,17.47,0.00,3.28,1.53,3.11,0.00,0.00,0.09
0,16.10,0.00,0.00,2.77,14.24,0.00,0.00,1.72,22.56,0.00,0.00,4.80,15.01,0.00,13.70,2.34,0.00,0.00,0.00,0.00,10.06,0.00,0.00,1.41,17.97,0.00,6.56,1.58,3.12,0.00,0.00,0.09
0,16.65,0.00,0.00,2.83,13.79,0.00,0.00,1.66,22.55,0.00,0.00,4.75,15.06,0.00,13.70,2.29,0.00,0.00,0.00,0.00,10.24,0.00,0.00,1.44,18.10,0.00,6.56,1.56,3.16,0.00,0.00,0.10
0,16.95,0.00,0.00,2.91,13.63,0.00,0.00,1.59,21.46,0.00,0.00,4.68,14.94,0.00,12.33,2.29,0.00,0.00,0.00,0.00,10.27,0.00,0.00,1.46,18.08,0.00,6.56,1.57,3.15,0.00,0.00,0.10
0,16.95,0.00,0.00,2.79,13.39,0.00,0.00,1.55,21.78,0.00,0.00,4.74,14.96,0.00,12.33,2.24,0.00,0.00,0.00,0.00,10.09,0.00,0.00,1.43,18.02,0.00,6.56,1.59,3.14,0.00,0.00,0.10
0,16.34,0.00,0.00,2.57,13.10,0.00,0.00,1.55,21.58,0.00,0.00,4.68,14.99,0.00,13.70,2.29,0.00,0.00,0.00,0.00,10.14,0.00,0.00,1.44,17.81,0.00,6.56,1.56,3.14,0.00,0.00,0.10
0,16.70,0.00,0.00,2.54,13.48,0.00,0.00,1.63,21.72,0.00,0.00,4.69,15.15,0.00,13.70,2.30,0.00,0.00,0.00,0.00,10.37,0.00,0.00,1.51,17.46,0.00,6.56,1.51,3.15,0.00,0.00,0.10
0,17.07,0.00,0.00,2.58,13.48,0.00,0.00,1.64,20.98,0.00,0.00,4.40,15.15,0.00,15.07,2.31,0.00,0.00,0.00,0.00,11.25,0.00,0.00,1.74,17.43,0.00,6.56,1.49,3.13,0.00,0.00,0.10
0,16.89,0.00,0.00,2.55,13.45,0.00,0.00,1.57,21.41,0.00,0.00,4.57,15.04,0.00,13.70,2.32,0.00,0.00,0.00,0.00,12.46,2.82,0.00,2.71,18.19,0.00,6.56,1.54,3.09,0.00,0.00,0.10
0,16.53,0.00,0.00,2.48,13.45,0.00,0.00,1.63,22.37,0.00,0.00,4.91,14.60,0.00,13.70,2.09,0.00,0.00,0.00,0.00,13.45,2.82,0.00,3.23,18.01,0.00,6.56,1.50,3.05,0.00,0.00,0.10
0,16.44,0.00,0.00,2.22,12.92,0.00,0.00,1.49,22.75,0.00,0.00,4.85,14.38,0.00,13.70,2.00,0.00,0.00,0.00,0.00,13.68,2.82,0.00,3.33,17.91,0.00,6.56,1.51,3.10,0.00,0.00,0.10
0,16.28,0.00,0.00,2.22,12.86,0.00,0.00,1.52,22.68,0.00,0.00,4.83,14.37,0.00,15.07,2.06,0.00,0.00,0.00,0.00,14.14,2.82,0.00,3.54,17.42,0.00,6.56,1.45,3.11,0.00,0.00,0.10
0,16.29,0.00,0.00,2.20,12.75,0.00,0.00,1.58,22.52,0.00,0.00,4.81,14.81,0.00,15.07,2.24,0.00,0.00,0.00,0.00,14.52,2.82,0.00,3.69,17.71,0.00,6.56,1.40,3.17,0.00,0.00,0.11
0,16.27,0.00,0.00,2.17,12.90,0.00,0.00,1.63,22.86,0.00,0.00,4.90,14.80,0.00,15.07,2.18,0.00,0.00,0.00,0.00,14.76,2.82,0.00,3.79,17.85,0.00,6.56,1.51,3.24,0.00,0.00,0.11
0,15.48,0.00,0.00,1.88,13.00,0.00,0.00,1.64,22.45,0.00,0.00,4.63,14.45,0.00,13.70,2.06,0.00,0.00,0.00,0.00,14.52,2.82,0.00,3.76,17.49,0.00,6.56,1.48,3.22,0.00,0.00,0.11
0,15.31,0.00,0.00,1.87,12.44,0.00,0.00,1.56,22.68,0.00,0.00,4.67,14.03,0.00,13.70,1.96,0.00,0.00,0.00,0.00,14.47,2.82,0.00,3.71,18.14,0.00,6.56,1.52,3.22,0.00,0.00,0.11
0,14.96,0.00,0.00,1.83,12.68,0.00,0.00,1.62,21.40,0.00,0.00,4.19,13.90,0.00,13.70,1.98,0.00,0.00,0.00,0.00,14.89,2.82,0.00,3.90,17.52,0.00,3.28,1.48,3.15,0.00,0.00,0.11
0,14.75,0.00,0.00,1.85,12.34,0.00,0.00,1.58,21.69,0.00,0.00,4.16,14.33,0.00,15.07,2.09,0.00,0.00,0.00,0.00,14.79,2.82,0.00,3.91,17.67,0.00,3.28,1.51,3.12,0.00,0.00,0.11
0,14.24,0.00,0.00,1.63,11.94,0.00,0.00,1.54,20.67,0.00,0.00,3.76,14.62,0.00,15.07,2.16,0.00,0.00,0.00,0.00,14.52,2.82,0.00,3.81,17.85,0.00,3.28,1.52,3.26,0.00,0.00,0.12
0,14.20,0.00,0.00,1.68,12.28,0.00,0.00,1.59,20.95,0.00,0.00,3.79,14.70,0.00,13.70,2.16,0.00,0.00,0.00,0.00,14.75,2.82,0.00,3.87,17.77,0.00,3.28,1.48,3.16,0.00,0.00,0.11
0,14.01,0.00,0.00,1.69,12.22,0.00,0.00,1.57,21.32,0.00,0.00,4.08,14.12,0.00,12.33,2.03,0.00,0.00,0.00,0.00,14.78,2.82,0.00,3.86,17.58,0.00,3.28,1.44,3.20,0.00,0.00,0.11
0,13.93,0.00,0.00,1.69,12.16,0.00,0.00,1.56,21.24,0.00,0.00,4.20,13.74,0.00,10.96,1.92,0.00,0.00,0.00,0.00,14.78,2.82,0.00,3.83,17.64,0.00,3.28,1.45,3.25,0.00,0.00,0.11
0,13.69,0.00,0.00,1.57,12.43,0.00,0.00,1.59,21.40,0.00,0.00,4.38,13.75,0.00,10.96,1.92,0.00,0.00,0.00,0.00,14.92,2.82,0.00,3.89,17.02,0.00,0.00,1.33,3.32,0.00,0.00,0.12
0,13.68,0.00,0.00,1.60,12.66,0.00,0.00,1.62,21.57,0.00,0.00,4.30,13.77,0.00,10.96,1.93,0.00,0.00,0.00,0.00,14.87,2.82,0.00,3.89,16.49,0.00,0.00,1.26,3.27,0.00,0.00,0.11
0,13.14,0.00,0.00,1.57,12.66,0.00,0.00,1.62,21.45,0.00,0.00,4.22,13.58,0.00,10.96,1.84,0.00,0.00,0.00,0.00,14.95,2.82,0.00,3.93,16.55,0.00,0.00,1.36,3.37,0.00,0.00,0.12
0,13.11,0.00,0.00,1.54,12.60,0.00,0.00,1.57,21.88,0.00,0.00,4.28,13.40,0.00,9.59,1.80,0.00,0.00,0.00,0.00,15.45,2.82,0.00,4.10,17.01,0.00,0.00,1.42,3.37,0.00,0.00,0.12
0,12.71,0.00,0.00,1.45,12.65,0.00,0.00,1.57,21.44,0.00,0.00,4.17,13.18,0.00,8.22,1.82,0.00,0.00,0.00,0.00,15.60,2.82,0.00,4.25,16.82,0.00,0.00,1.41,3.29,0.00,0.00,0.12
0,13.31,0.00,0.00,1.62,12.62,0.00,0.00,1.53,21.32,0.00,0.00,4.12,13.74,0.00,9.59,1.95,0.00,0.00,0.00,0.00,15.62,2.82,0.00,4.28,16.62,0.00,0.00,1.33,3.21,0.00,0.00,0.11
0,12.90,0.00,0.00,1.56,12.52,0.00,0.00,1.51,21.82,0.00,0.00,4.15,13.79,0.00,9.59,1.91,0.00,0.00,0.00,0.00,14.84,2.82,0.00,4.12,16.62,0.00,0.00,1.34,3.24,0.00,0.00,0.11
0,12.62,0.00,0.00,1.53,12.44,0.00,0.00,1.54,22.81,0.00,0.00,4.50,13.63,0.00,9.59,1.84,0.00,0.00,0.00,0.00,13.45,0.00,0.00,3.48,16.58,0.00,0.00,1.39,3.31,0.00,0.00,0.12
0,12.60,0.00,0.00,1.52,12.34,0.00,0.00,1.52,22.46,0.00,0.00,4.46,13.62,0.00,9.59,1.85,0.00,0.00,0.00,0.00,12.04,0.00,0.00,2.63,16.20,0.00,0.00,1.34,3.27,0.00,0.00,0.11
0,12.64,0.00,0.00,1.49,12.59,0.00,0.00,1.53,22.25,0.00,0.00,4.39,13.63,0.00,9.59,1.84,0.00,0.00,0.00,0.00,11.64,0.00,0.00,2.36,15.71,0.00,0.00,1.30,3.26,0.00,0.00,0.11
0,12.71,0.00,0.00,1.54,12.68,0.00,0.00,1.56,22.47,0.00,0.00,4.51,13.58,0.00,8.22,1.80,0.00,0.00,0.00,0.00,11.05,0.00,0.00,2.14,15.62,0.00,0.00,1.28,3.22,0.00,0.00,0.11
0,12.56,0.00,0.00,1.51,12.62,0.00,0.00,1.49,22.98,0.00,0.00,4.63,13.34,0.00,8.22,1.69,0.00,0.00,0.00,0.00,10.44,0.00,0.00,1.94,15.22,0.00,0.00,1.30,3.24,0.00,0.00,0.11
0,12.64,0.00,0.00,1.56,12.45,0.00,0.00,1.45,23.57,0.00,0.00,4.80,13.64,0.00,8.22,1.72,0.00,0.00,0.00,0.00,9.98,0.00,0.00,1.83,14.68,0.00,0.00,1.14,3.17,0.00,0.00,0.11
0,12.48,0.00,0.00,1.54,12.36,0.00,0.00,1.44,23.70,0.00,0.00,4.91,13.99,0.00,9.59,1.85,0.00,0.00,0.00,0.00,9.85,0.00,0.00,1.77,14.63,0.00,0.00,1.14,3.19,0.00,0.00,0.11
0,12.67,0.00,0.00,1.59,12.64,0.00,0.00,1.49,23.77,0.00,0.00,4.92,14.06,0.00,9.59,1.83,0.00,0.00,0.00,0.00,9.91,0.00,0.00,1.79,14.49,0.00,0.00,1.15,3.29,0.00,0.00,0.11
0,12.67,0.00,0.00,1.55,12.58,0.00,0.00,1.43,24.54,0.00,0.00,5.31,14.19,0.00,9.59,1.87,0.00,0.00,0.00,0.00,9.68,0.00,0.00,1.70,14.21,0.00,0.00,1.10,3.25,0.00,0.00,0.11
0,12.97,0.00,0.00,1.60,12.82,0.00,0.00,1.45,25.45,0.00,0.00,5.74,14.33,0.00,9.59,1.95,0.00,0.00,0.00,0.00,9.40,0.00,0.00,1.63,14.49,0.00,0.00,1.11,3.49,0.00,0.00,0.13
0,12.98,0.00,0.00,1.60,12.76,0.00,0.00,1.49,25.35,0.00,0.00,5.63,14.34,0.00,9.59,1.93,0.00,0.00,0.00,0.00,9.46,0.00,0.00,1.65,14.39,0.00,0.00,1.13,3.44,0.00,0.00,0.12
0,13.46,0.00,0.00,1.70,12.15,0.00,0.00,1.38,25.46,0.00,0.00,5.59,14.22,0.00,9.59,1.91,0.00,0.00,0.00,0.00,9.45,0.00,0.00,1.63,14.12,0.00,0.00,1.12,3.39,0.00,0.00,0.12
0,13.45,0.00,0.00,1.69,12.22,0.00,0.00,1.36,25.68,0.00,0.00,5.60,14.38,0.00,10.96,1.96,0.00,0.00,0.00,0.00,9.74,0.00,0.00,1.71,14.62,0.00,1.64,1.25,3.45,0.00,0.00,0.12
0,13.09,0.00,0.00,1.59,12.28,0.00,0.00,1.37,25.72,0.00,0.00,5.74,14.69,0.00,10.96,2.03,0.00,0.00,0.00,0.00,9.61,0.00,0.00,1.69,14.32,0.00,1.64,1.25,3.33,0.00,0.00,0.12
0,12.63,0.00,0.00,1.56,12.51,0.00,0.00,1.40,25.65,0.00,0.00,5.84,14.65,0.00,10.96,2.06,0.00,0.00,0.00,0.00,9.72,0.00,0.00,1.68,14.45,0.00,1.64,1.28,3.24,0.00,0.00,0.11
0,13.11,0.00,0.00,1.61,12.85,0.00,0.00,1.48,26.10,0.00,0.00,5.87,14.70,0.00,10.96,2.16,0.00,0.00,0.00,0.00,9.85,0.00,0.00,1.68,14.96,0.00,1.64,1.34,3.25,0.00,0.00,0.12
0,13.10,0.00,0.00,1.60,13.21,0.00,0.00,1.53,26.24,0.00,0.00,6.19,15.66,0.00,15.07,2.46,0.00,0.00,0.00,0.00,9.57,0.00,0.00,1.58,15.04,0.00,1.64,1.27,3.18,0.00,0.00,0.11
0,13.08,0.00,0.00,1.56,13.09,0.00,0.00,1.54,26.49,0.00,0.00,6.34,15.87,0.00,15.07,2.57,0.00,0.00,0.00,0.00,9.90,0.00,0.00,1.68,14.77,0.00,1.64,1.22,3.20,0.00,0.00,0.11
0,13.62,0.00,0.00,1.76,12.91,0.00,0.00,1.49,26.11,0.00,0.00,6.16,16.05,0.00,16.44,2.60,0.00,0.00,0.00,0.00,9.24,0.00,0.00,1.39,15.04,0.00,1.64,1.25,3.35,0.00,0.00,0.12
0,13.68,0.00,0.00,1.78,12.84,0.00,0.00,1.49,26.40,0.00,0.00,6.20,15.69,0.00,15.07,2.50,0.00,0.00,0.00,0.00,8.94,0.00,0.00,1.28,15.18,0.00,1.64,1.29,3.48,0.00,0.00,0.13
0,13.80,0.00,0.00,1.79,12.89,0.00,0.00,1.47,26.00,0.00,0.00,6.19,15.48,0.00,13.70,2.47,0.00,0.00,0.00,0.00,9.16,0.00,0.00,1.30,15.37,0.00,1.64,1.32,3.52,0.00,0.00,0.13
0,13.96,0.00,0.00,1.81,12.94,0.00,0.00,1.48,24.75,0.00,0.00,5.71,15.80,0.00,15.07,2.60,0.00,0.00,0.00,0.00,9.15,0.00,0.00,1.26,15.42,0.00,1.64,1.29,3.41,0.00,0.00,0.13
0,14.29,0.00,0.00,1.85,12.73,0.00,0.00,1.42,24.59,0.00,0.00,5.70,15.43,0.00,13.70,2.55,0.00,0.00,0.00,0.00,9.26,0.00,0.00,1.30,15.33,0.00,1.64,1.29,3.44,0.00,0.00,0.13
0,14.51,0.00,0.00,1.88,12.44,0.00,0.00,1.36,24.86,0.00,0.00,5.78,15.43,0.00,13.70,2.53,0.00,0.00,0.00,0.00,9.25,0.00,0.00,1.29,15.35,0.00,1.64,1.30,3.51,0.00,0.00,0.13
0,14.43,0.00,0.00,1.87,12.10,0.00,0.00,1.28,25.44,0.00,0.00,5.87,15.56,0.00,13.70,2.52,0.00,0.00,0.00,0.00,9.32,0.00,0.00,1.30,15.63,0.00,1.64,1.33,3.44,0.00,0.00,0.13
0,14.63,0.00,0.00,1.90,11.74,0.00,0.00,1.23,25.78,0.00,0.00,6.45,15.30,0.00,12.33,2.52,0.00,0.00,0.00,0.00,9.92,0.00,0.00,1.53,15.83,0.00,1.64,1.34,3.36,0.00,0.00,0.13
0,14.71,0.00,0.00,1.89,12.01,0.00,0.00,1.29,24.87,0.00,0.00,6.21,15.84,0.00,13.70,2.78,0.00,0.00,0.00,0.00,9.78,0.00,0.00,1.49,16.32,0.00,3.28,1.43,3.38,0.00,0.00,0.13
0,14.82,0.00,0.00,1.92,11.80,0.00,0.00,1.25,25.09,0.00,0.00,6.35,15.49,0.00,12.33,2.65,0.00,0.00,0.00,0.00,10.30,0.00,0.00,1.65,16.73,0.00,3.28,1.48,3.32,0.00,0.00,0.13
0,14.78,0.00,0.00,1.93,12.04,0.00,0.00,1.28,25.70,0.00,0.00,6.85,15.30,0.00,10.96,2.63,0.00,0.00,0.00,0.00,10.63,0.00,0.00,1.70,16.53,0.00,3.28,1.45,3.26,0.00,0.00,0.12
0,14.64,0.00,0.00,1.91,11.48,0.00,0.00,1.23,25.64,0.00,0.00,6.99,15.00,0.00,10.96,2.62,0.00,0.00,0.00,0.00,10.53,0.00,0.00,1.69,16.71,0.00,3.28,1.46,3.28,0.00,0.00,0.13
0,14.31,0.00,0.00,1.80,11.32,0.00,0.00,1.22,26.24,2.56,0.00,7.37,15.45,0.00,12.33,2.89,0.00,0.00,0.00,0.00,10.36,0.00,0.00,1.60,17.14,0.00,4.92,1.49,3.18,0.00,0.00,0.12
0,13.90,0.00,0.00,1.71,11.56,0.00,0.00,1.21,26.50,2.56,0.00,7.66,15.45,0.00,13.70,2.96,0.00,0.00,0.00,0.00,10.25,0.00,0.00,1.58,16.89,0.00,4.92,1.43,3.15,0.00,0.00,0.11
0,13.48,0.00,0.00,1.61,11.86,0.00,0.00,1.28,26.56,2.56,0.00,7.77,15.39,0.00,13.70,2.98,0.00,0.00,0.00,0.00,10.08,0.00,0.00,1.55,17.94,0.00,4.92,1.59,3.24,0.00,0.00,0.12
0,13.99,0.00,0.00,1.71,11.64,0.00,0.00,1.26,26.25,2.56,0.00,7.62,15.56,0.00,13.70,2.99,0.00,0.00,0.00,0.00,9.65,0.00,0.00,1.42,17.33,0.00,3.28,1.44,3.10,0.00,0.00,0.11
0,13.95,0.00,0.00,1.73,11.73,0.00,0.00,1.30,26.71,2.56,0.00,7.72,15.64,0.00,13.70,3.03,0.00,0.00,0.00,0.00,9.81,0.00,0.00,1.43,17.40,0.00,3.28,1.44,3.07,0.00,0.00,0.10
0,14.27,0.00,0.00,1.81,11.60,0.00,0.00,1.25,26.75,2.56,0.00,7.44,15.50,0.00,13.70,3.01,0.00,0.00,0.00,0.00,9.53,0.00,0.00,1.43,17.69,0.00,3.28,1.48,3.08,0.00,0.00,0.10
0,13.68,0.00,0.00,1.69,11.39,0.00,0.00,1.25,26.83,2.56,0.00,7.41,15.76,0.00,16.44,2.92,0.00,0.00,0.00,0.00,9.25,0.00,0.00,1.33,17.60,0.00,3.28,1.47,3.03,0.00,0.00,0.10
0,13.52,0.00,0.00,1.66,11.20,0.00,0.00,1.26,27.29,5.13,0.00,8.12,14.79,0.00,12.33,2.61,0.00,0.00,0.00,0.00,9.33,0.00,0.00,1.36,17.32,0.00,3.28,1.43,3.09,0.00,0.00,0.11
0,13.42,0.00,0.00,1.64,11.22,0.00,0.00,1.24,27.66,5.13,0.00,8.23,15.15,0.00,13.70,2.63,0.00,0.00,0.00,0.00,9.25,0.00,0.00,1.34,17.59,0.00,3.28,1.43,3.02,0.00,0.00,0.10
0,12.83,0.00,0.00,1.47,11.82,0.00,0.00,1.30,29.30,5.13,0.00,9.10,14.95,0.00,12.33,2.62,0.00,0.00,0.00,0.00,9.34,0.00,0.00,1.31,17.79,0.00,4.92,1.48,2.94,0.00,0.00,0.10
0,12.19,0.00,0.00,1.31,11.65,0.00,0.00,1.29,29.51,5.13,0.00,9.55,15.31,0.00,15.07,2.69,0.00,0.00,0.00,0.00,9.61,0.00,0.00,1.35,17.96,0.00,4.92,1.46,2.91,0.00,0.00,0.09
0,11.81,0.00,0.00,1.24,11.79,0.00,0.00,1.34,29.80,5.13,0.00,9.66,15.39,0.00,15.07,2.79,0.00,0.00,0.00,0.00,9.38,0.00,0.00,1.33,18.20,0.00,4.92,1.47,2.92,0.00,0.00,0.09
0,11.94,0.00,0.00,1.22,11.87,0.00,0.00,1.40,30.44,5.13,0.00,10.30,15.92,0.00,15.07,3.05,0.00,0.00,0.00,0.00,9.40,0.00,0.00,1.34,18.26,0.00,4.92,1.49,3.00,0.00,0.00,0.10
0,11.54,0.00,0.00,1.16,12.18,0.00,0.00,1.46,31.13,5.13,0.00,10.87,16.43,0.00,16.44,3.18,0.00,0.00,0.00,0.00,9.07,0.00,0.00,1.29,18.18,0.00,4.92,1.46,2.98,0.00,0.00,0.10
0,11.73,0.00,0.00,1.21,12.99,0.00,0.00,1.59,31.99,5.13,0.00,11.35,16.97,0.00,19.18,3.32,0.00,0.00,0.00,0.00,9.03,0.00,0.00,1.28,18.60,0.00,4.92,1.49,2.92,0.00,0.00,0.09
1,12.51,0.00,0.00,1.49,13.64,0.00,0.00,1.78,32.30,5.13,0.00,11.39,17.35,0.00,19.18,3.45,0.00,0.00,0.00,0.00,8.92,0.00,0.00,1.26,19.11,0.00,4.92,1.59,2.94,0.00,0.00,0.09
1,12.81,0.00,0.00,1.55,13.64,0.00,0.00,1.78,31.45,5.13,0.00,10.92,17.27,0.00,19.18,3.45,0.00,0.00,0.00,0.00,8.18,0.00,0.00,1.01,18.92,0.00,4.92,1.56,2.94,0.00,0.00,0.09
1,12.72,0.00,0.00,1.67,13.59,0.00,0.00,1.77,32.23,5.13,0.00,10.86,16.67,0.00,17.81,3.19,0.00,0.00,0.00,0.00,8.92,0.00,0.00,1.26,18.47,0.00,3.28,1.50,3.07,0.00,0.00,0.10
1,13.83,1.27,0.00,1.98,13.91,0.00,0.00,1.82,31.97,5.13,0.00,11.21,16.84,0.00,19.18,3.36,0.00,0.00,0.00,0.00,8.79,0.00,0.00,1.18,18.81,0.00,3.28,1.59,3.77,0.00,0.00,0.20
1,16.71,5.06,4.00,3.49,14.54,0.00,0.00,1.99,31.77,5.13,0.00,10.87,17.70,0.00,21.92,3.56,0.00,0.00,0.00,0.00,9.29,0.00,0.00,1.40,18.97,0.00,3.28,1.62,4.31,0.00,0.00,0.25
1,19.24,8.86,6.00,4.41,14.99,0.00,0.00,2.07,31.83,5.13,0.00,10.81,18.57,0.00,24.66,3.79,0.00,0.00,0.00,0.00,11.82,4.23,0.00,3.34,19.30,0.00,3.28,1.67,4.68,0.00,0.00,0.28
1,22.93,13.92,10.00,6.87,15.68,0.00,0.00,2.20,32.43,2.56,0.00,11.16,18.56,0.00,26.03,3.87,0.00,0.00,0.00,0.00,13.10,5.63,0.00,4.30,19.28,0.00,1.64,1.73,4.68,0.00,0.00,0.28
1,25.34,16.46,14.00,9.58,16.20,0.00,0.00,2.35,31.85,2.56,0.00,11.00,18.55,0.00,26.03,3.80,0.00,0.00,0.00,0.00,14.23,8.45,0.00,5.17,19.65,0.00,3.28,1.82,4.78,0.00,0.00,0.29
1,28.02,21.52,14.00,10.63,16.80,0.00,0.00,2.50,31.73,2.56,0.00,10.97,19.13,0.00,27.40,3.85,0.00,0.00,0.00,0.00,15.26,8.45,0.00,5.53,19.61,0.00,3.28,1.78,5.08,0.00,0.00,0.35
1,31.80,25.32,20.00,14.68,16.70,0.00,0.00,2.49,32.28,2.56,0.00,11.06,19.16,0.00,27.40,3.88,0.00,0.00,0.00,0.00,16.02,8.45,0.00,5.85,19.78,0.00,3.28,1.78,5.34,0.00,0.00,0.37
1,34.33,26.58,22.00,17.24,17.17,0.00,0.00,2.61,31.97,2.56,0.00,10.80,18.81,0.00,27.40,3.77,0.00,0.00,0.00,0.00,17.21,9.86,0.00,6.39,20.20,0.00,3.28,1.86,5.49,0.00,0.00,0.38
1,38.58,31.65,28.00,20.38,17.90,0.00,0.00,2.84,32.15,2.56,0.00,10.82,19.04,0.00,27.40,3.78,0.00,0.00,0.00,0.00,17.86,9.86,0.00,6.57,20.76,0.00,4.92,1.99,5.79,0.00,0.00,0.40
1,41.08,36.71,32.00,21.96,18.91,0.00,0.00,3.18,32.71,2.56,0.00,11.41,19.02,0.00,24.66,3.92,0.00,0.00,0.00,0.00,18.50,11.27,0.00,7.13,21.35,0.00,8.20,2.16,6.01,0.00,0.00,0.42
1,43.54,40.51,32.00,23.17,18.70,0.00,0.00,3.12,31.68,0.00,0.00,10.32,18.77,0.00,24.66,3.87,0.00,0.00,0.00,0.00,18.58,11.27,0.00,7.28,21.54,0.00,8.20,2.21,6.24,0.00,0.00,0.44
1,44.66,41.77,32.00,23.56,18.85,0.00,0.00,3.21,31.43,0.00,0.00,10.48,18.99,0.00,24.66,4.00,0.00,0.00,0.00,0.00,18.99,11.27,0.00,7.38,21.41,0.00,8.20,2.20,6.29,0.00,0.00,0.45
1,47.24,43.04,34.00,25.31,18.63,0.00,0.00,3.19,31.18,0.00,0.00,10.23,19.69,0.00,27.40,4.16,0.00,0.00,0.00,0.00,19.02,11.27,0.00,7.37,21.01,0.00,6.56,2.13,6.49,0.00,0.00,0.46
1,48.36,44.30,34.00,26.01,18.56,0.00,0.00,3.19,31.04,0.00,0.00,9.73,19.63,0.00,27.40,4.20,0.00,0.00,0.00,0.00,19.26,11.27,0.00,7.45,21.21,0.00,6.56,2.17,6.96,0.00,0.00,0.52
1,49.48,45.57,34.00,26.27,19.13,0.00,0.00,3.32,31.16,0.00,0.00,9.61,20.89,0.00,32.88,4.49,0.00,0.00,0.00,0.00,19.53,11.27,0.00,7.67,21.26,0.00,6.56,2.19,7.05,0.00,0.00,0.54
1,50.96,46.84,34.00,26.87,18.78,0.00,0.00,3.21,30.76,0.00,0.00,9.16,20.73,0.00,31.51,4.31,0.00,0.00,0.00,0.00,20.24,11.27,0.00,7.81,20.98,0.00,6.56,2.14,7.36,0.00,0.00,0.58
1,51.86,48.10,34.00,27.22,18.70,0.00,0.00,3.19,30.32,0.00,0.00,8.83,20.74,0.00,31.51,4.34,0.00,0.00,0.00,0.00,20.41,11.27,0.00,7.88,21.09,0.00,6.56,2.16,7.60,0.00,0.00,0.59
1,53.27,50.63,36.00,27.96,18.60,0.00,0.00,3.21,29.16,0.00,0.00,8.27,21.38,0.00,32.88,4.68,0.00,0.00,0.00,0.00,20.92,11.27,0.00,8.01,21.20,0.00,6.56,2.17,7.97,0.00,0.00,0.62
1,54.15,53.16,36.00,28.88,18.09,0.00,0.00,3.08,29.90,0.00,0.00,8.64,21.00,0.00,32.88,4.58,0.00,0.00,0.00,0.00,21.38,11.27,0.00,8.14,20.62,0.00,6.56,2.08,8.12,0.00,0.00,0.65
1,54.23,53.16,36.00,28.87,18.25,0.00,0.00,3.09,30.44,0.00,0.00,8.92,21.51,0.00,32.88,4.84,0.00,0.00,0.00,0.00,22.71,12.68,0.00,8.69,21.69,0.00,8.20,2.27,8.08,0.00,0.00,0.65
1,54.36,53.16,36.00,28.81,18.39,0.00,0.00,3.09,30.29,0.00,0.00,9.01,22.37,0.00,35.62,5.12,0.00,0.00,0.00,0.00,22.86,12.68,0.00,8.73,22.23,0.00,9.84,2.34,8.30,0.00,0.00,0.69
1,53.60,51.90,36.00,28.55,18.80,0.00,0.00,3.20,29.94,0.00,0.00,8.62,22.78,0.00,38.36,5.25,0.00,0.00,0.00,0.00,23.53,12.68,0.00,8.84,22.94,0.00,13.11,2.48,8.23,0.00,0.00,0.68
1,51.63,49.37,32.00,27.44,18.89,0.00,0.00,3.21,31.28,0.00,0.00,9.38,22.87,0.00,39.73,5.22,0.00,0.00,0.00,0.00,23.59,14.08,0.00,9.33,23.26,0.00,14.75,2.48,7.60,0.00,0.00,0.60
1,50.86,48.10,32.00,26.83,18.82,0.00,0.00,3.19,31.03,0.00,0.00,9.24,21.93,0.00,36.99,4.95,0.00,0.00,0.00,0.00,21.53,9.86,0.00,7.82,23.50,0.00,16.39,2.47,7.25,0.00,0.00,0.57
1,47.73,41.77,26.00,25.20,18.30,0.00,0.00,3.10,29.46,0.00,0.00,8.27,21.16,0.00,32.88,4.51,0.00,0.00,0.00,0.00,19.92,8.45,0.00,6.57,23.09,0.00,16.39,2.43,7.44,0.00,0.00,0.58
1,45.68,39.24,22.00,22.22,17.87,0.00,0.00,3.03,30.23,2.56,0.00,9.02,21.38,0.00,31.51,4.73,0.00,0.00,0.00,0.00,18.56,5.63,0.00,5.85,22.58,0.00,14.75,2.32,7.59,0.00,0.00,0.60
1,45.40,37.97,22.00,22.14,17.51,0.00,0.00,2.91,30.01,2.56,0.00,9.14,21.61,0.00,31.51,4.92,0.00,0.00,0.00,0.00,18.54,5.63,0.00,5.47,22.21,0.00,14.75,2.26,7.34,0.00,0.00,0.56
1,43.67,37.97,20.00,20.16,17.20,0.00,0.00,2.84,29.70,2.56,0.00,9.13,21.38,0.00,30.14,4.95,0.00,0.00,0.00,0.00,17.67,5.63,0.00,5.19,22.19,0.00,14.75,2.31,7.19,0.00,0.00,0.53
1,41.45,36.71,16.00,17.64,16.80,0.00,0.00,2.71,30.46,2.56,0.00,9.87,22.22,0.00,31.51,5.20,0.00,0.00,0.00,0.00,16.60,4.23,0.00,4.71,21.65,0.00,14.75,2.23,7.20,0.00,0.00,0.54
1,39.60,34.18,10.00,15.30,16.15,0.00,0.00,2.54,30.68,2.56,0.00,10.33,23.18,0.00,36.99,5.63,0.00,0.00,0.00,0.00,15.99,4.23,0.00,4.47,20.78,0.00,13.11,2.04,6.97,0.00,0.00,0.54
1,37.70,30.38,6.00,14.24,15.64,0.00,0.00,2.23,29.27,2.56,0.00,9.65,22.83,0.00,36.99,5.44,0.00,0.00,0.00,0.00,14.83,2.82,0.00,3.86,19.98,0.00,9.84,1.83,6.76,0.00,0.00,0.51
1,36.72,27.85,6.00,13.34,15.44,0.00,0.00,2.16,29.50,2.56,0.00,9.88,23.05,0.00,36.99,5.49,0.00,0.00,0.00,0.00,14.49,2.82,0.00,3.71,19.94,0.00,9.84,1.81,6.80,0.00,0.00,0.53
1,37.21,27.85,6.00,13.25,15.35,0.00,0.00,2.13,28.51,2.56,0.00,9.45,22.56,0.00,35.62,5.36,0.00,0.00,0.00,0.00,14.43,2.82,0.00,3.65,20.78,0.00,11.48,1.96,6.62,0.00,0.00,0.51
1,36.05,27.85,4.00,12.09,15.69,0.00,0.00,2.24,28.29,2.56,0.00,9.76,23.22,0.00,38.36,5.74,0.00,0.00,0.00,0.00,14.26,2.82,0.00,3.63,21.03,0.00,11.48,2.07,6.45,0.00,0.00,0.49
1,36.36,27.85,4.00,11.80,15.57,0.00,0.00,2.23,30.24,5.13,0.00,11.82,23.21,0.00,38.36,5.70,0.00,0.00,0.00,0.00,14.28,2.82,0.00,3.64,20.61,0.00,11.48,1.97,6.77,0.00,0.00,0.54
1,37.39,30.38,4.00,12.53,14.95,0.00,0.00,2.11,31.28,5.13,0.00,12.64,22.82,0.00,34.25,5.81,0.00,0.00,0.00,0.00,14.01,2.82,0.00,3.34,19.86,0.00,11.48,1.92,6.40,0.00,0.00,0.48
1,38.04,30.38,4.00,12.78,15.02,0.00,0.00,2.11,30.97,5.13,0.00,12.50,22.56,0.00,36.99,5.67,0.00,0.00,0.00,0.00,13.51,2.82,0.00,3.26,20.09,0.00,11.48,1.96,6.21,0.00,0.00,0.45
1,37.66,29.11,4.00,12.53,14.71,0.00,0.00,2.07,31.26,5.13,0.00,12.86,22.45,0.00,35.62,5.62,0.00,0.00,0.00,0.00,13.44,2.82,0.00,3.18,20.28,0.00,14.75,2.00,6.29,0.00,0.00,0.46
1,37.89,29.11,4.00,12.85,14.48,0.00,0.00,2.09,31.60,5.13,0.00,13.02,21.99,0.00,32.88,5.30,0.00,0.00,0.00,0.00,13.34,2.82,0.00,3.18,20.49,0.00,16.39,2.02,6.02,0.00,0.00,0.43
1,36.41,25.32,2.00,11.66,14.65,0.00,0.00,2.12,30.89,5.13,0.00,12.61,22.57,0.00,35.62,5.34,0.00,0.00,0.00,0.00,13.08,2.82,0.00,3.14,20.26,0.00,16.39,2.01,5.96,0.00,0.00,0.42
1,36.35,26.58,2.00,11.38,14.52,0.00,0.00,2.08,30.47,5.13,0.00,12.32,22.42,0.00,38.36,5.12,0.00,0.00,0.00,0.00,12.15,1.41,0.00,2.71,19.49,0.00,14.75,1.87,6.13,0.00,0.00,0.42
1,36.80,26.58,2.00,11.54,14.48,0.00,0.00,2.09,30.67,5.13,0.00,12.15,21.59,0.00,35.62,4.86,0.00,0.00,0.00,0.00,11.82,1.41,0.00,2.54,19.14,0.00,13.11,1.78,5.81,0.00,0.00,0.38
1,36.96,26.58,2.00,11.60,14.04,0.00,0.00,2.03,30.42,5.13,0.00,12.32,20.74,0.00,31.51,4.66,0.00,0.00,0.00,0.00,10.87,1.41,0.00,2.36,17.61,0.00,9.84,1.55,5.74,0.00,0.00,0.36
1,36.66,26.58,2.00,11.55,13.51,0.00,0.00,1.89,29.54,5.13,0.00,11.79,21.16,0.00,31.51,4.73,0.00,0.00,0.00,0.00,9.66,0.00,0.00,1.53,17.06,0.00,8.20,1.46,5.82,0.00,0.00,0.36
1,36.96,26.58,2.00,11.67,12.94,0.00,0.00,1.77,29.05,5.13,0.00,11.65,20.97,0.00,31.51,4.73,0.00,0.00,0.00,0.00,9.39,0.00,0.00,1.40,16.32,0.00,6.56,1.36,5.95,0.00,0.00,0.38
1,35.97,26.58,2.00,11.30,12.84,0.00,0.00,1.72,29.89,5.13,0.00,12.28,21.03,0.00,31.51,4.67,0.00,0.00,0.00,0.00,9.40,0.00,0.00,1.39,15.97,0.00,6.56,1.32,5.85,0.00,0.00,0.37
1,34.83,25.32,2.00,10.96,13.26,0.00,0.00,1.82,29.29,2.56,0.00,11.39,20.56,0.00,31.51,4.38,0.00,0.00,0.00,0.00,9.46,0.00,0.00,1.37,17.04,0.00,9.84,1.48,5.71,0.00,0.00,0.36
1,34.85,24.05,2.00,10.96,13.39,0.00,0.00,1.85,29.61,2.56,0.00,11.54,19.85,0.00,30.14,4.23,0.00,0.00,0.00,0.00,9.07,0.00,0.00,1.29,16.95,0.00,9.84,1.47,5.64,0.00,0.00,0.35
1,33.27,20.25,0.00,9.91,13.19,0.00,0.00,1.79,29.92,2.56,0.00,11.46,20.41,0.00,31.51,4.25,0.00,0.00,0.00,0.00,8.93,0.00,0.00,1.23,16.43,0.00,9.84,1.35,5.80,0.00,0.00,0.36
1,33.02,18.99,0.00,9.50,12.91,0.00,0.00,1.76,29.73,2.56,0.00,10.97,21.28,0.00,34.25,4.59,0.00,0.00,0.00,0.00,8.83,0.00,0.00,1.19,16.40,0.00,9.84,1.35,5.82,0.00,0.00,0.38
1,32.32,18.99,0.00,8.96,12.91,0.00,0.00,1.72,28.41,2.56,0.00,10.30,19.96,0.00,30.14,4.12,0.00,0.00,0.00,0.00,8.82,0.00,0.00,1.12,16.38,0.00,9.84,1.37,6.03,0.00,0.00,0.39
1,31.74,16.46,0.00,8.64,12.82,0.00,0.00,1.72,29.19,2.56,0.00,10.55,20.06,0.00,28.77,4.22,0.00,0.00,0.00,0.00,9.25,0.00,0.00,1.19,16.63,0.00,9.84,1.40,6.26,0.00,0.00,0.41
1,31.41,15.19,0.00,8.53,12.68,0.00,0.00,1.75,29.44,2.56,0.00,10.35,20.45,0.00,28.77,4.26,0.00,0.00,0.00,0.00,9.45,0.00,0.00,1.21,16.51,0.00,9.84,1.38,6.11,0.00,0.00,0.39
1,31.14,15.19,0.00,8.62,12.45,0.00,0.00,1.67,30.11,2.56,0.00,10.40,21.13,0.00,31.51,4.33,0.00,0.00,0.00,0.00,9.25,0.00,0.00,1.19,15.93,0.00,8.20,1.30,6.12,0.00,0.00,0.39
1,30.74,15.19,0.00,8.58,12.02,0.00,0.00,1.59,30.60,2.56,0.00,10.19,20.86,0.00,30.14,4.02,0.00,0.00,0.00,0.00,9.27,0.00,0.00,1.16,15.65,0.00,8.20,1.21,6.37,0.00,0.00,0.41
1,30.14,15.19,0.00,8.40,12.13,0.00,0.00,1.59,29.03,0.00,0.00,8.53,20.24,0.00,28.77,3.88,0.00,0.00,0.00,0.00,9.36,0.00,0.00,1.20,15.71,0.00,8.20,1.21,6.18,0.00,0.00,0.41
1,28.28,11.39,0.00,7.51,12.37,0.00,0.00,1.66,28.12,0.00,0.00,7.80,20.00,0.00,28.77,3.67,0.00,0.00,0.00,0.00,9.45,0.00,0.00,1.27,16.01,0.00,8.20,1.24,6.23,0.00,0.00,0.42
1,27.69,10.13,0.00,7.21,12.00,0.00,0.00,1.58,27.71,0.00,0.00,7.56,19.54,0.00,26.03,3.45,0.00,0.00,0.00,0.00,9.50,0.00,0.00,1.29,15.78,0.00,8.20,1.21,6.24,0.00,0.00,0.43
1,26.80,10.13,0.00,6.91,12.55,0.00,0.00,1.71,27.79,0.00,0.00,7.34,19.39,0.00,28.77,3.39,0.00,0.00,0.00,0.00,9.94,0.00,0.00,1.47,15.83,0.00,4.92,1.32,6.03,0.00,0.00,0.41
1,26.67,10.13,0.00,6.69,12.49,0.00,0.00,1.71,27.02,0.00,0.00,6.91,19.73,0.00,31.51,3.42,0.00,0.00,0.00,0.00,9.94,0.00,0.00,1.49,15.69,0.00,3.28,1.33,6.37,0.00,0.00,0.43
1,26.80,11.39,0.00,6.94,13.14,0.00,0.00,1.90,27.18,0.00,0.00,7.03,19.94,0.00,31.51,3.55,0.00,0.00,0.00,0.00,9.65,0.00,0.00,1.34,16.00,0.00,3.28,1.35,6.47,0.00,0.00,0.47
1,26.49,11.39,0.00,6.89,13.08,0.00,0.00,1.92,26.93,0.00,0.00,7.07,19.34,0.00,27.40,3.47,0.00,0.00,0.00,0.00,9.50,0.00,0.00,1.29,16.21,0.00,3.28,1.35,6.38,0.00,0.00,0.46
1,27.06,12.66,0.00,7.19,13.10,0.00,0.00,1.96,27.26,0.00,0.00,7.39,20.16,0.00,30.14,3.80,0.00,0.00,0.00,0.00,9.31,0.00,0.00,1.28,15.59,0.00,3.28,1.28,6.56,0.00,0.00,0.50
1,27.18,12.66,0.00,7.14,12.89,0.00,0.00,1.85,27.04,0.00,0.00,7.35,20.60,0.00,31.51,3.80,0.00,0.00,0.00,0.00,9.41,0.00,0.00,1.30,16.19,0.00,3.28,1.36,6.62,0.00,0.00,0.51
1,27.01,12.66,0.00,7.05,13.46,0.00,0.00,1.92,26.98,0.00,0.00,7.41,19.90,0.00,30.14,3.67,0.00,0.00,0.00,0.00,9.54,0.00,0.00,1.33,16.81,0.00,3.28,1.45,6.47,0.00,0.00,0.50
1,26.74,12.66,0.00,6.99,13.78,0.00,0.00,2.00,27.76,0.00,0.00,7.59,20.18,0.00,31.51,3.73,0.00,0.00,0.00,0.00,9.72,0.00,0.00,1.36,17.14,0.00,3.28,1.49,6.58,0.00,0.00,0.50
1,26.73,11.39,0.00,6.89,14.01,0.00,0.00,2.04,28.41,0.00,0.00,8.14,20.57,0.00,32.88,4.00,0.00,0.00,0.00,0.00,9.86,0.00,0.00,1.41,17.35,0.00,3.28,1.52,6.63,0.00,0.00,0.52
1,28.00,13.92,0.00,7.27,13.99,0.00,0.00,2.00,28.29,0.00,0.00,8.21,20.49,0.00,32.88,3.98,0.00,0.00,0.00,0.00,9.73,0.00,0.00,1.38,16.88,0.00,1.64,1.40,6.73,0.00,0.00,0.53
1,28.21,15.19,0.00,7.33,13.96,0.00,0.00,2.00,28.36,0.00,0.00,8.16,20.68,0.00,32.88,4.05,0.00,0.00,0.00,0.00,9.77,0.00,0.00,1.40,16.68,0.00,1.64,1.36,6.86,0.00,0.00,0.55
1,28.23,16.46,0.00,7.40,14.33,0.00,0.00,2.05,28.43,0.00,0.00,8.34,20.41,0.00,34.25,3.93,0.00,0.00,0.00,0.00,9.79,0.00,0.00,1.40,17.43,0.00,1.64,1.46,6.82,0.00,0.00,0.55
1,27.88,16.46,0.00,7.33,14.30,0.00,0.00,2.05,27.92,0.00,0.00,8.37,19.88,0.00,32.88,3.71,0.00,0.00,0.00,0.00,9.98,0.00,0.00,1.43,18.12,0.00,3.28,1.53,6.85,0.00,0.00,0.53
1,27.52,16.46,2.00,7.24,14.47,0.00,0.00,2.14,28.31,0.00,0.00,8.46,20.28,0.00,35.62,3.81,0.00,0.00,0.00,0.00,10.05,0.00,0.00,1.47,18.17,0.00,3.28,1.53,7.05,0.00,0.00,0.57
1,27.06,16.46,2.00,6.93,14.19,0.00,0.00,2.11,28.90,0.00,0.00,9.07,20.84,0.00,38.36,4.24,0.00,0.00,0.00,0.00,9.85,0.00,0.00,1.45,18.24,0.00,3.28,1.54,6.76,0.00,0.00,0.54
1,27.15,17.72,2.00,7.06,14.33,0.00,0.00,2.09,29.32,0.00,0.00,9.61,20.87,0.00,39.73,4.27,0.00,0.00,0.00,0.00,9.76,0.00,0.00,1.42,18.34,0.00,3.28,1.53,7.10,0.00,0.00,0.59
1,26.99,17.72,2.00,7.09,14.61,0.00,0.00,2.12,28.56,0.00,0.00,9.42,20.99,0.00,38.36,4.36,0.00,0.00,0.00,0.00,9.76,0.00,0.00,1.41,18.77,0.00,3.28,1.55,7.11,0.00,0.00,0.59
1,26.49,16.46,2.00,6.55,14.22,0.00,0.00,2.01,29.29,0.00,0.00,9.83,20.90,0.00,38.36,4.46,0.00,0.00,0.00,0.00,9.58,0.00,0.00,1.39,18.56,0.00,3.28,1.53,7.00,0.00,0.00,0.58
1,26.47,17.72,2.00,6.60,14.33,0.00,0.00,2.05,29.18,0.00,0.00,10.08,21.10,0.00,36.99,4.70,0.00,0.00,0.00,0.00,9.47,0.00,0.00,1.34,18.74,0.00,3.28,1.57,7.10,0.00,0.00,0.58
1,26.83,17.72,2.00,6.71,14.26,0.00,0.00,2.00,28.79,0.00,0.00,9.88,20.65,0.00,35.62,4.58,0.00,0.00,0.00,0.00,9.20,0.00,0.00,1.25,18.69,0.00,3.28,1.58,6.92,0.00,0.00,0.56
1,26.53,16.46,2.00,6.43,14.72,0.00,0.00,2.10,29.57,0.00,0.00,10.14,20.82,0.00,35.62,4.63,0.00,0.00,0.00,0.00,8.98,0.00,0.00,1.18,19.19,0.00,3.28,1.64,6.88,0.00,0.00,0.54
1,26.74,16.46,2.00,6.50,14.48,0.00,0.00,2.01,29.20,0.00,0.00,9.90,21.21,0.00,36.99,4.78,0.00,0.00,0.00,0.00,8.42,0.00,0.00,0.97,18.75,0.00,3.28,1.50,7.11,0.00,0.00,0.57
1,26.15,16.46,2.00,6.36,14.25,0.00,0.00,1.93,29.40,0.00,0.00,10.06,21.09,0.00,34.25,4.79,0.00,0.00,0.00,0.00,8.42,0.00,0.00,0.96,18.26,0.00,3.28,1.43,6.92,0.00,0.00,0.56
1,25.73,15.19,2.00,6.28,13.63,0.00,0.00,1.67,29.82,0.00,0.00,10.07,21.07,0.00,34.25,4.77,0.00,0.00,0.00,0.00,8.43,0.00,0.00,0.95,17.92,0.00,3.28,1.41,6.79,0.00,0.00,0.52
1,25.09,12.66,2.00,5.89,13.38,0.00,0.00,1.58,30.46,0.00,0.00,10.30,20.86,0.00,34.25,4.77,0.00,0.00,0.00,0.00,8.24,0.00,0.00,0.95,18.21,0.00,3.28,1.47,6.72,0.00,0.00,0.52
1,24.25,11.39,2.00,5.71,13.18,0.00,0.00,1.52,29.72,0.00,0.00,9.74,20.62,0.00,32.88,4.65,0.00,0.00,0.00,0.00,8.21,0.00,0.00,0.94,18.84,0.00,3.28,1.54,6.72,0.00,0.00,0.52
1,24.04,11.39,2.00,5.48,13.27,0.00,0.00,1.56,30.43,0.00,0.00,10.32,20.10,0.00,31.51,4.63,0.00,0.00,0.00,0.00,8.31,0.00,0.00,0.94,18.36,0.00,3.28,1.48,6.72,0.00,0.00,0.49
1,23.84,12.66,2.00,5.61,12.98,0.00,0.00,1.55,30.87,0.00,0.00,10.18,20.29,0.00,31.51,4.64,0.00,0.00,0.00,0.00,8.13,0.00,0.00,0.90,17.94,0.00,3.28,1.40,6.92,0.00,0.00,0.51
1,23.48,12.66,2.00,5.52,12.91,0.00,0.00,1.54,30.03,0.00,0.00,9.71,20.44,0.00,30.14,4.55,0.00,0.00,0.00,0.00,8.02,0.00,0.00,0.87,17.55,0.00,3.28,1.37,6.90,0.00,0.00,0.53
1,23.84,13.92,2.00,5.69,12.44,0.00,0.00,1.44,29.08,0.00,0.00,9.14,20.88,0.00,30.14,4.67,0.00,0.00,0.00,0.00,7.91,0.00,0.00,0.85,17.57,0.00,3.28,1.38,6.68,0.00,0.00,0.49
1,23.51,12.66,2.00,5.56,11.85,0.00,0.00,1.35,29.03,0.00,0.00,9.26,21.10,0.00,30.14,4.77,0.00,0.00,0.00,0.00,8.03,0.00,0.00,0.87,17.21,0.00,1.64,1.38,6.61,0.00,0.00,0.49
1,22.74,10.13,2.00,5.16,11.80,0.00,0.00,1.37,29.80,0.00,0.00,9.41,21.83,0.00,32.88,4.97,0.00,0.00,0.00,0.00,8.11,0.00,0.00,0.88,16.98,0.00,1.64,1.37,6.50,0.00,0.00,0.48
1,22.71,8.86,2.00,5.02,11.93,0.00,0.00,1.39,29.33,0.00,0.00,9.11,21.95,0.00,32.88,4.97,0.00,0.00,0.00,0.00,7.98,0.00,0.00,0.86,16.70,0.00,1.64,1.35,6.61,0.00,0.00,0.50
1,23.03,8.86,2.00,5.08,11.75,0.00,0.00,1.41,29.66,0.00,0.00,9.23,21.41,0.00,31.51,4.68,0.00,0.00,0.00,0.00,7.75,0.00,0.00,0.81,15.73,0.00,0.00,1.23,6.62,0.00,0.00,0.49
1,22.01,6.33,0.00,4.71,11.41,0.00,0.00,1.30,29.53,0.00,0.00,9.15,21.14,0.00,28.77,4.63,0.00,0.00,0.00,0.00,7.44,0.00,0.00,0.74,15.46,0.00,0.00,1.21,6.25,0.00,0.00,0.44
1,22.52,6.33,0.00,4.74,11.56,0.00,0.00,1.27,28.74,0.00,0.00,8.60,20.62,0.00,27.40,4.22,0.00,0.00,0.00,0.00,7.57,0.00,0.00,0.76,15.74,0.00,0.00,1.25,6.35,0.00,0.00,0.44
1,21.85,5.06,0.00,4.43,11.43,0.00,0.00,1.28,28.87,0.00,0.00,8.09,21.16,0.00,30.14,4.24,0.00,0.00,0.00,0.00,7.52,0.00,0.00,0.76,14.95,0.00,0.00,1.19,6.10,0.00,0.00,0.40
1,21.01,5.06,0.00,4.20,11.37,0.00,0.00,1.26,29.80,0.00,0.00,8.62,20.90,0.00,28.77,4.36,0.00,0.00,0.00,0.00,7.61,0.00,0.00,0.77,14.84,0.00,0.00,1.15,6.03,0.00,0.00,0.39
1,20.28,3.80,0.00,3.71,11.68,0.00,0.00,1.32,29.78,2.56,0.00,8.54,20.91,0.00,28.77,4.34,0.00,0.00,0.00,0.00,7.70,0.00,0.00,0.80,14.83,0.00,0.00,1.18,6.16,0.00,0.00,0.41
1,20.33,2.53,0.00,3.62,11.79,0.00,0.00,1.37,28.66,2.56,0.00,7.92,20.54,0.00,27.40,4.08,0.00,0.00,0.00,0.00,7.73,0.00,0.00,0.81,14.44,0.00,0.00,1.13,6.01,0.00,0.00,0.41
1,21.25,3.80,0.00,3.99,11.66,0.00,0.00,1.34,29.21,2.56,0.00,8.27,20.74,0.00,28.77,4.15,0.00,0.00,0.00,0.00,7.85,0.00,0.00,0.83,14.11,0.00,0.00,1.08,6.36,0.00,0.00,0.46
1,21.79,3.80,0.00,4.13,11.43,0.00,0.00,1.29,29.23,2.56,0.00,8.46,20.39,0.00,27.40,4.16,0.00,0.00,0.00,0.00,7.70,0.00,0.00,0.81,13.99,0.00,0.00,1.04,6.39,0.00,0.00,0.46
1,22.35,5.06,0.00,4.41,11.62,0.00,0.00,1.33,28.57,2.56,0.00,8.41,19.99,0.00,24.66,4.05,0.00,0.00,0.00,0.00,7.54,0.00,0.00,0.78,14.09,0.00,0.00,1.07,6.28,0.00,0.00,0.46
1,24.23,7.59,2.00,5.45,11.54,0.00,0.00,1.30,28.78,2.56,0.00,8.64,21.43,0.00,27.40,4.84,0.00,0.00,0.00,0.00,7.34,0.00,0.00,0.75,14.15,0.00,0.00,1.10,6.44,0.00,0.00,0.45
1,24.81,7.59,2.00,5.64,11.66,0.00,0.00,1.33,29.04,2.56,0.00,9.14,20.54,0.00,24.66,4.67,0.00,0.00,0.00,0.00,7.46,0.00,0.00,0.78,14.28,0.00,0.00,1.11,6.77,0.00,0.00,0.54
1,25.31,8.86,2.00,5.84,11.66,0.00,0.00,1.34,30.15,2.56,0.00,9.79,21.19,0.00,27.40,4.83,0.00,0.00,0.00,0.00,7.78,0.00,0.00,0.81,14.22,0.00,0.00,1.06,6.79,0.00,0.00,0.55
1,25.64,8.86,2.00,6.02,11.77,0.00,0.00,1.34,31.23,5.13,0.00,10.95,20.95,0.00,28.77,4.74,0.00,0.00,0.00,0.00,7.82,0.00,0.00,0.82,13.80,0.00,0.00,0.98,6.66,0.00,0.00,0.54
1,26.11,8.86,2.00,6.17,11.80,0.00,0.00,1.37,31.34,5.13,0.00,10.97,21.54,0.00,31.51,4.89,0.00,0.00,0.00,0.00,7.65,0.00,0.00,0.81,13.90,0.00,0.00,1.00,6.72,0.00,0.00,0.53
1,26.20,7.59,2.00,6.03,12.00,0.00,0.00,1.40,30.31,5.13,0.00,10.64,21.99,0.00,31.51,5.10,0.00,0.00,0.00,0.00,7.94,0.00,0.00,0.91,14.53,0.00,0.00,1.12,6.47,0.00,0.00,0.51
1,26.65,7.59,2.00,6.21,12.16,0.00,0.00,1.41,31.26,5.13,0.00,11.10,21.98,0.00,32.88,5.16,0.00,0.00,0.00,0.00,8.08,0.00,0.00,0.92,15.07,0.00,0.00,1.14,6.53,0.00,0.00,0.50
1,26.40,6.33,2.00,6.02,12.45,0.00,0.00,1.45,31.59,5.13,0.00,11.42,21.09,0.00,31.51,4.89,0.00,0.00,0.00,0.00,8.27,0.00,0.00,0.97,15.01,0.00,0.00,1.12,6.54,0.00,0.00,0.51
1,26.72,6.33,2.00,6.27,12.79,0.00,0.00,1.51,31.30,5.13,0.00,11.00,21.85,0.00,34.25,5.15,0.00,0.00,0.00,0.00,8.40,0.00,0.00,0.96,15.10,0.00,0.00,1.09,6.65,0.00,0.00,0.52
1,26.59,6.33,2.00,6.35,13.10,0.00,0.00,1.59,30.11,5.13,0.00,10.48,20.94,0.00,32.88,4.87,0.00,0.00,0.00,0.00,8.49,0.00,0.00,0.97,15.06,0.00,0.00,1.08,6.68,0.00,0.00,0.52
1,26.12,7.59,2.00,6.46,13.32,0.00,0.00,1.61,30.08,5.13,0.00,10.57,20.62,0.00,31.51,4.85,0.00,0.00,0.00,0.00,8.38,0.00,0.00,0.95,15.18,0.00,0.00,1.08,6.65,0.00,0.00,0.52
1,26.75,7.59,2.00,6.75,13.55,0.00,0.00,1.65,29.82,5.13,0.00,10.38,20.73,0.00,31.51,4.85,0.00,0.00,0.00,0.00,8.37,0.00,0.00,0.96,15.48,0.00,0.00,1.15,6.70,0.00,0.00,0.52
1,26.43,7.59,2.00,6.69,13.29,0.00,0.00,1.63,29.84,5.13,0.00,10.37,20.56,0.00,30.14,4.80,0.00,0.00,0.00,0.00,8.28,0.00,0.00,0.95,15.78,0.00,0.00,1.20,6.65,0.00,0.00,0.51
1,27.23,8.86,2.00,6.95,13.26,0.00,0.00,1.66,30.28,5.13,0.00,10.52,20.83,0.00,30.14,4.81,0.00,0.00,0.00,0.00,8.33,0.00,0.00,0.96,15.40,0.00,0.00,1.16,7.06,0.00,0.00,0.58
1,27.05,8.86,2.00,7.05,13.15,0.00,0.00,1.66,29.58,5.13,0.00,10.26,20.52,0.00,27.40,4.78,0.00,0.00,0.00,0.00,8.46,0.00,0.00,1.02,15.91,0.00,0.00,1.22,6.99,0.00,0.00,0.57
1,28.00,10.13,2.00,7.49,12.98,0.00,0.00,1.65,29.22,5.13,0.00,10.00,21.07,0.00,31.51,4.87,0.00,0.00,0.00,0.00,8.47,0.00,0.00,1.05,16.13,0.00,0.00,1.26,7.09,0.00,0.00,0.58
1,28.51,10.13,2.00,7.58,12.78,0.00,0.00,1.61,27.57,2.56,0.00,9.25,20.45,0.00,30.14,4.62,0.00,0.00,0.00,0.00,8.75,0.00,0.00,1.11,15.80,0.00,0.00,1.22,6.96,0.00,0.00,0.56
1,28.32,10.13,2.00,7.59,12.68,0.00,0.00,1.59,27.66,2.56,0.00,9.22,20.63,0.00,30.14,4.63,0.00,0.00,0.00,0.00,8.85,0.00,0.00,1.12,15.96,0.00,0.00,1.24,6.93,0.00,0.00,0.57
1,27.11,8.86,2.00,7.16,12.63,0.00,0.00,1.57,28.02,2.56,0.00,9.27,20.23,0.00,28.77,4.47,0.00,0.00,0.00,0.00,8.82,0.00,0.00,1.10,16.03,0.00,0.00,1.25,6.56,0.00,0.00,0.52
1,27.13,8.86,2.00,7.30,12.83,0.00,0.00,1.58,27.56,2.56,0.00,8.77,20.18,0.00,28.77,4.33,0.00,0.00,0.00,0.00,8.88,0.00,0.00,1.12,15.77,0.00,0.00,1.23,6.56,0.00,0.00,0.50
1,25.99,7.59,2.00,6.97,12.78,0.00,0.00,1.61,27.64,2.56,0.00,8.70,20.73,0.00,30.14,4.41,0.00,0.00,0.00,0.00,8.97,0.00,0.00,1.14,15.87,0.00,0.00,1.26,6.35,0.00,0.00,0.48
1,25.33,6.33,0.00,6.31,12.80,0.00,0.00,1.62,26.87,2.56,0.00,8.27,18.61,0.00,26.03,3.50,0.00,0.00,0.00,0.00,8.96,0.00,0.00,1.17,15.81,0.00,0.00,1.24,6.23,0.00,0.00,0.46
1,24.82,6.33,0.00,6.36,12.65,0.00,0.00,1.60,26.09,2.56,0.00,7.67,18.51,0.00,26.03,3.43,0.00,0.00,0.00,0.00,9.03,0.00,0.00,1.18,15.88,0.00,0.00,1.21,5.69,0.00,0.00,0.37
1,24.39,6.33,0.00,6.08,12.64,0.00,0.00,1.61,25.16,2.56,0.00,6.85,18.49,0.00,24.66,3.32,0.00,0.00,0.00,0.00,8.75,0.00,0.00,1.14,15.96,0.00,0.00,1.22,5.93,0.00,0.00,0.41
1,24.76,6.33,0.00,6.24,12.44,0.00,0.00,1.59,24.12,0.00,0.00,5.74,18.53,0.00,24.66,3.36,0.00,0.00,0.00,0.00,8.68,0.00,0.00,1.14,15.96,0.00,0.00,1.23,6.04,0.00,0.00,0.45
1,24.98,6.33,0.00,6.20,12.27,0.00,0.00,1.54,23.69,0.00,0.00,5.46,18.09,0.00,23.29,3.25,0.00,0.00,0.00,0.00,8.83,0.00,0.00,1.17,16.06,0.00,0.00,1.29,5.95,0.00,0.00,0.45
1,25.81,7.59,0.00,6.42,12.15,0.00,0.00,1.48,24.34,0.00,0.00,5.54,18.57,0.00,24.66,3.27,0.00,0.00,0.00,0.00,8.77,0.00,0.00,1.12,15.64,0.00,0.00,1.20,5.89,0.00,0.00,0.45
1,25.63,7.59,0.00,6.31,11.82,0.00,0.00,1.44,23.69,0.00,0.00,5.61,18.03,0.00,24.66,3.12,0.00,0.00,0.00,0.00,8.74,0.00,0.00,1.14,15.30,0.00,0.00,1.17,6.11,0.00,0.00,0.48
1,25.54,7.59,0.00,6.38,11.69,0.00,0.00,1.43,22.56,0.00,0.00,4.88,17.81,0.00,24.66,2.94,0.00,0.00,0.00,0.00,8.64,0.00,0.00,1.12,15.39,0.00,0.00,1.20,6.02,0.00,0.00,0.45
1,25.58,7.59,0.00,6.27,11.59,0.00,0.00,1.40,22.23,0.00,0.00,4.86,17.29,0.00,23.29,2.69,0.00,0.00,0.00,0.00,8.65,0.00,0.00,1.13,15.32,0.00,0.00,1.23,5.93,0.00,0.00,0.45
1,25.30,7.59,0.00,6.08,11.40,0.00,0.00,1.34,22.31,0.00,0.00,4.97,17.75,0.00,24.66,2.89,0.00,0.00,0.00,0.00,8.65,0.00,0.00,1.16,15.56,0.00,0.00,1.28,5.99,0.00,0.00,0.46
1,25.84,7.59,0.00,6.25,11.29,0.00,0.00,1.27,22.49,0.00,0.00,4.98,17.75,0.00,23.29,2.85,0.00,0.00,0.00,0.00,8.93,0.00,0.00,1.23,15.47,0.00,0.00,1.27,5.80,0.00,0.00,0.43
1,24.89,7.59,0.00,6.06,11.20,0.00,0.00,1.24,22.90,0.00,0.00,5.03,17.82,0.00,23.29,2.86,0.00,0.00,0.00,0.00,8.89,0.00,0.00,1.25,15.68,0.00,0.00,1.26,5.83,0.00,0.00,0.43
1,24.09,7.59,0.00,5.51,11.23,0.00,0.00,1.23,23.37,0.00,0.00,5.24,18.22,0.00,27.40,3.05,0.00,0.00,0.00,0.00,9.19,0.00,0.00,1.32,16.08,0.00,1.64,1.34,5.92,0.00,0.00,0.44
1,23.88,6.33,0.00,5.53,10.90,0.00,0.00,1.17,22.99,0.00,0.00,4.93,18.61,0.00,27.40,3.09,0.00,0.00,0.00,0.00,9.09,0.00,0.00,1.31,15.68,0.00,1.64,1.29,5.62,0.00,0.00,0.39
1,23.94,6.33,0.00,5.46,10.98,0.00,0.00,1.14,24.01,0.00,0.00,5.17,18.82,0.00,30.14,3.26,0.00,0.00,0.00,0.00,9.05,0.00,0.00,1.28,15.64,0.00,1.64,1.26,5.75,0.00,0.00,0.44
1,23.24,5.06,0.00,5.02,11.09,0.00,0.00,1.16,23.79,0.00,0.00,5.16,17.73,0.00,24.66,3.03,0.00,0.00,0.00,0.00,8.84,0.00,0.00,1.22,15.68,0.00,1.64,1.27,5.76,0.00,0.00,0.45
1,23.27,6.33,0.00,5.12,11.05,0.00,0.00,1.13,25.20,0.00,0.00,5.78,18.60,0.00,27.40,3.30,0.00,0.00,0.00,0.00,8.37,0.00,0.00,1.12,15.48,0.00,1.64,1.24,5.84,0.00,0.00,0.44
1,23.80,6.33,0.00,5.20,11.01,0.00,0.00,1.11,25.08,0.00,0.00,5.82,18.97,0.00,28.77,3.45,0.00,0.00,0.00,0.00,8.40,0.00,0.00,1.12,15.45,0.00,1.64,1.23,5.99,0.00,0.00,0.45
1,23.80,6.33,0.00,5.22,11.11,0.00,0.00,1.13,24.53,0.00,0.00,5.76,19.22,0.00,30.14,3.58,0.00,0.00,0.00,0.00,8.14,0.00,0.00,1.08,15.56,0.00,1.64,1.23,5.96,0.00,0.00,0.44
1,23.61,6.33,0.00,5.24,10.63,0.00,0.00,1.05,24.32,0.00,0.00,5.77,19.28,0.00,30.14,3.64,0.00,0.00,0.00,0.00,8.35,0.00,0.00,1.09,15.65,0.00,1.64,1.22,6.11,0.00,0.00,0.44
1,24.39,6.33,0.00,5.57,10.26,0.00,0.00,0.99,24.97,0.00,0.00,5.95,19.29,0.00,31.51,3.63,0.00,0.00,0.00,0.00,8.47,0.00,0.00,1.11,15.26,0.00,1.64,1.15,6.32,0.00,0.00,0.48
1,22.95,5.06,0.00,5.17,10.27,0.00,0.00,1.01,26.46,0.00,0.00,6.35,20.06,0.00,32.88,3.78,0.00,0.00,0.00,0.00,8.28,0.00,0.00,1.06,15.07,0.00,1.64,1.14,6.53,0.00,0.00,0.50
1,22.45,5.06,0.00,4.74,10.57,0.00,0.00,1.06,25.98,0.00,0.00,6.18,20.05,0.00,32.88,3.81,0.00,0.00,0.00,0.00,8.49,0.00,0.00,1.11,15.77,0.00,4.92,1.27,6.47,0.00,0.00,0.50
1,22.44,5.06,0.00,4.75,10.90,0.00,0.00,1.13,26.66,0.00,0.00,6.44,20.38,0.00,32.88,3.84,0.00,0.00,0.00,0.00,8.38,0.00,0.00,1.10,15.90,0.00,4.92,1.30,6.95,0.00,0.00,0.56
1,21.92,3.80,0.00,4.44,10.74,0.00,0.00,1.10,27.01,0.00,0.00,6.60,19.87,0.00,31.51,3.71,0.00,0.00,0.00,0.00,8.57,0.00,0.00,1.13,15.71,0.00,4.92,1.28,6.58,0.00,0.00,0.50
1,21.50,3.80,0.00,4.52,10.73,0.00,0.00,1.10,26.49,0.00,0.00,6.46,19.88,0.00,32.88,3.69,0.00,0.00,0.00,0.00,8.83,0.00,0.00,1.18,15.65,0.00,4.92,1.24,6.62,0.00,0.00,0.50
1,20.67,2.53,0.00,4.28,10.32,0.00,0.00,1.03,25.93,0.00,0.00,6.27,19.72,0.00,32.88,3.68,0.00,0.00,0.00,0.00,8.76,0.00,0.00,1.17,15.20,0.00,4.92,1.18,6.55,0.00,0.00,0.49
1,20.98,2.53,0.00,4.32,10.44,0.00,0.00,1.05,25.97,0.00,0.00,6.11,19.33,0.00,31.51,3.62,0.00,0.00,0.00,0.00,8.69,0.00,0.00,1.12,15.17,0.00,4.92,1.18,6.51,0.00,0.00,0.49
1,21.86,5.06,0.00,4.85,10.65,0.00,0.00,1.06,26.06,0.00,0.00,6.12,19.20,0.00,30.14,3.56,0.00,0.00,0.00,0.00,8.84,0.00,0.00,1.24,15.18,0.00,4.92,1.20,6.15,0.00,0.00,0.44
1,21.76,5.06,0.00,4.78,10.65,0.00,0.00,1.04,25.79,0.00,0.00,5.76,18.72,0.00,28.77,3.47,0.00,0.00,0.00,0.00,9.01,0.00,0.00,1.29,15.44,0.00,4.92,1.23,6.04,0.00,0.00,0.43
1,21.51,5.06,0.00,4.72,10.92,0.00,0.00,1.12,25.91,0.00,0.00,5.73,18.25,0.00,26.03,3.23,0.00,0.00,0.00,0.00,8.68,0.00,0.00,1.19,15.12,0.00,4.92,1.19,5.91,0.00,0.00,0.42
1,21.24,5.06,0.00,4.53,11.11,0.00,0.00,1.26,25.81,0.00,0.00,5.66,18.82,0.00,28.77,3.46,0.00,0.00,0.00,0.00,8.22,0.00,0.00,1.09,15.25,0.00,4.92,1.18,5.77,0.00,0.00,0.42
1,21.21,3.80,0.00,4.54,12.47,0.00,0.00,1.75,25.39,0.00,0.00,5.79,18.62,0.00,28.77,3.47,0.00,0.00,0.00,0.00,9.06,0.00,0.00,1.30,16.86,0.00,9.84,1.55,5.73,0.00,0.00,0.42
1,23.63,7.59,2.00,5.86,13.50,0.00,0.00,2.22,24.91,0.00,0.00,5.53,17.88,0.00,24.66,3.22,0.00,0.00,0.00,0.00,9.67,0.00,0.00,1.89,18.09,0.00,11.48,1.97,5.68,0.00,0.00,0.42
1,23.07,7.59,2.00,5.71,13.74,0.00,0.00,2.28,25.44,0.00,0.00,5.78,17.94,0.00,27.40,3.23,0.00,0.00,0.00,0.00,9.66,0.00,0.00,1.89,18.58,0.00,13.11,2.10,5.64,0.00,0.00,0.42
1,25.77,11.39,6.00,7.39,14.15,0.00,0.00,2.34,24.31,0.00,0.00,5.62,16.76,0.00,24.66,2.84,0.00,0.00,0.00,0.00,10.66,0.00,0.00,2.35,19.16,0.00,14.75,2.23,5.24,0.00,0.00,0.34
1,29.75,15.19,10.00,10.22,14.09,0.00,0.00,2.33,23.93,0.00,0.00,5.42,16.93,0.00,24.66,2.75,0.00,0.00,0.00,0.00,15.14,4.23,1.96,9.07,19.70,0.00,16.39,2.36,5.07,0.00,0.00,0.33
1,30.69,17.72,10.00,11.04,14.63,0.00,0.00,2.59,23.90,0.00,0.00,5.25,16.23,0.00,23.29,2.55,0.00,0.00,0.00,0.00,16.36,5.63,1.96,10.40,20.65,0.00,18.03,2.64,5.07,0.00,0.00,0.33
1,32.18,18.99,10.00,11.72,14.80,0.00,0.00,2.64,24.81,0.00,0.00,5.33,18.20,2.44,27.40,3.88,0.00,0.00,0.00,0.00,17.35,5.63,1.96,10.68,20.53,0.00,18.03,2.62,5.03,0.00,0.00,0.35
1,32.55,20.25,10.00,11.92,15.56,0.00,0.00,2.82,24.00,0.00,0.00,5.11,18.40,2.44,27.40,3.96,0.00,0.00,0.00,0.00,19.16,7.04,1.96,11.68,21.23,0.00,18.03,2.79,5.23,0.00,0.00,0.36
1,32.85,22.78,10.00,12.51,16.15,0.00,0.00,2.92,23.87,0.00,0.00,4.79,18.21,2.44,27.40,3.92,0.00,0.00,0.00,0.00,19.61,7.04,1.96,12.14,22.87,0.00,21.31,3.10,5.21,0.00,0.00,0.36
1,34.62,27.85,10.00,13.32,16.79,0.00,0.00,3.29,23.21,0.00,0.00,4.68,18.19,2.44,27.40,3.83,0.00,0.00,0.00,0.00,20.21,7.04,1.96,12.26,23.85,0.00,24.59,3.41,4.96,0.00,0.00,0.31
0,36.35,30.38,10.00,14.88,17.60,0.00,0.00,3.42,23.18,0.00,0.00,4.78,18.44,2.44,27.40,3.84,0.00,0.00,0.00,0.00,21.44,8.45,1.96,12.87,25.12,0.00,26.23,3.62,4.61,0.00,0.00,0.28
0,37.89,35.44,10.00,15.55,17.66,0.00,0.00,3.52,23.24,0.00,0.00,4.79,18.65,2.44,30.14,3.85,0.00,0.00,0.00,0.00,21.61,8.45,1.96,12.90,24.90,0.00,22.95,3.58,4.65,0.00,0.00,0.28
0,39.38,37.97,10.00,16.24,17.53,0.00,0.00,3.48,22.18,0.00,0.00,4.38,18.57,2.44,30.14,3.85,0.00,0.00,0.00,0.00,22.22,8.45,1.96,13.19,25.46,0.00,22.95,3.68,4.35,0.00,0.00,0.23
0,39.52,37.97,10.00,16.32,17.45,0.00,0.00,3.48,22.57,0.00,0.00,4.38,18.09,2.44,27.40,3.70,0.00,0.00,0.00,0.00,22.36,8.45,1.96,13.21,25.42,0.00,22.95,3.68,4.02,0.00,0.00,0.19
0,39.61,37.97,10.00,16.26,17.51,0.00,0.00,3.49,22.63,0.00,0.00,4.17,17.96,2.44,24.66,3.64,0.00,0.00,0.00,0.00,22.48,8.45,1.96,13.24,26.29,0.00,22.95,3.88,4.05,0.00,0.00,0.19
0,40.12,40.51,10.00,16.50,17.82,0.00,0.00,3.55,23.07,0.00,0.00,4.46,18.23,2.44,24.66,3.78,0.00,0.00,0.00,0.00,23.18,8.45,1.96,13.34,26.19,0.00,22.95,3.90,4.05,0.00,0.00,0.19
0,41.53,43.04,12.00,17.42,17.99,0.00,0.00,3.58,23.06,0.00,0.00,4.49,18.31,2.44,23.29,3.77,0.00,0.00,0.00,0.00,24.25,9.86,1.96,13.87,26.16,0.00,22.95,3.92,4.11,0.00,0.00,0.19
0,41.99,44.30,14.00,17.95,17.73,0.00,0.00,3.57,23.79,0.00,0.00,4.75,18.45,2.44,24.66,3.80,0.00,0.00,0.00,0.00,24.16,9.86,1.96,13.78,26.57,0.00,22.95,4.02,4.12,0.00,0.00,0.19
0,42.98,46.84,14.00,18.76,17.62,0.00,0.00,3.57,24.32,0.00,0.00,4.89,18.45,2.44,24.66,3.89,0.00,0.00,0.00,0.00,24.11,9.86,1.96,13.78,26.30,0.00,22.95,3.97,4.08,0.00,0.00,0.19
0,43.47,48.10,14.00,18.92,17.38,0.00,0.00,3.50,24.73,0.00,0.00,4.98,19.01,2.44,26.03,4.06,0.00,0.00,0.00,0.00,24.84,9.86,1.96,14.01,26.40,0.00,22.95,3.98,4.07,0.00,0.00,0.19
0,43.82,49.37,14.00,19.24,17.48,0.00,0.00,3.47,25.08,0.00,0.00,5.05,18.17,2.44,23.29,3.85,0.00,0.00,0.00,0.00,25.53,9.86,1.96,14.25,26.75,0.00,22.95,4.03,4.14,0.00,0.00,0.19
0,44.64,50.63,14.00,19.66,16.08,0.00,0.00,3.05,24.79,0.00,0.00,4.86,18.50,2.44,24.66,3.87,0.00,0.00,0.00,0.00,25.18,9.86,1.96,14.20,25.11,0.00,18.03,3.75,4.13,0.00,0.00,0.19
0,42.52,46.84,12.00,18.30,14.79,0.00,0.00,2.50,25.11,0.00,0.00,4.84,18.31,2.44,24.66,3.81,0.00,0.00,0.00,0.00,25.35,9.86,1.96,14.03,23.65,0.00,14.75,3.39,3.96,0.00,0.00,0.17
0,42.78,48.10,12.00,18.45,15.09,0.00,0.00,2.47,24.74,0.00,0.00,4.51,17.99,2.44,21.92,3.76,0.00,0.00,0.00,0.00,25.34,9.86,1.96,13.86,23.00,0.00,13.11,3.02,3.97,0.00,0.00,0.17
0,42.76,46.84,10.00,18.59,15.27,0.00,0.00,2.50,24.58,0.00,0.00,4.46,18.18,2.44,23.29,3.80,0.00,0.00,0.00,0.00,26.01,9.86,1.96,14.05,22.95,0.00,11.48,2.95,3.88,0.00,0.00,0.17
0,38.31,43.04,6.00,14.96,15.42,0.00,0.00,2.53,25.35,0.00,0.00,4.95,18.39,2.44,23.29,3.88,0.00,0.00,0.00,0.00,23.60,8.45,1.96,10.79,22.07,0.00,9.84,2.79,3.95,0.00,0.00,0.17
0,36.26,39.24,4.00,13.67,14.97,0.00,0.00,2.35,25.39,0.00,0.00,5.09,18.19,2.44,21.92,3.80,0.00,0.00,0.00,0.00,20.40,4.23,0.00,6.05,21.46,0.00,8.20,2.52,3.92,0.00,0.00,0.17
0,34.94,37.97,4.00,13.16,14.61,0.00,0.00,2.26,24.74,0.00,0.00,4.97,16.77,0.00,19.18,3.02,0.00,0.00,0.00,0.00,19.69,4.23,0.00,5.69,21.70,0.00,8.20,2.58,3.69,0.00,0.00,0.15
0,34.13,36.71,4.00,12.76,14.23,0.00,0.00,2.21,24.84,0.00,0.00,5.04,15.80,0.00,17.81,2.23,0.00,0.00,0.00,0.00,18.20,2.82,0.00,4.67,21.76,0.00,8.20,2.55,3.40,0.00,0.00,0.12
0,33.85,35.44,4.00,12.43,14.04,0.00,0.00,2.13,25.21,0.00,0.00,5.26,16.05,0.00,19.18,2.26,0.00,0.00,0.00,0.00,17.45,2.82,0.00,4.21,20.70,0.00,6.56,2.34,3.33,0.00,0.00,0.11
0,32.57,31.65,4.00,11.12,13.12,0.00,0.00,1.73,25.15,0.00,0.00,5.18,15.95,0.00,17.81,2.28,0.00,0.00,0.00,0.00,17.05,2.82,0.00,4.06,19.35,0.00,3.28,1.97,3.18,0.00,0.00,0.11
0,31.40,27.85,4.00,10.18,12.99,0.00,0.00,1.77,24.91,0.00,0.00,5.09,15.37,0.00,16.44,2.16,0.00,0.00,0.00,0.00,16.17,1.41,0.00,3.58,18.06,0.00,0.00,1.77,3.06,0.00,0.00,0.10
0,30.47,24.05,4.00,9.19,12.98,0.00,0.00,1.69,24.42,0.00,0.00,4.87,14.67,0.00,12.33,2.06,0.00,0.00,0.00,0.00,16.13,1.41,0.00,3.56,18.22,0.00,1.64,1.70,3.02,0.00,0.00,0.10
0,28.20,18.99,4.00,8.32,12.75,0.00,0.00,1.67,24.99,0.00,0.00,5.01,14.41,0.00,12.33,2.04,0.00,0.00,0.00,0.00,15.36,1.41,0.00,3.28,17.57,0.00,1.64,1.58,2.94,0.00,0.00,0.10
0,27.29,18.99,4.00,8.12,12.73,0.00,0.00,1.67,25.06,0.00,0.00,5.11,14.60,0.00,13.70,2.11,0.00,0.00,0.00,0.00,15.47,1.41,0.00,3.27,17.19,0.00,1.64,1.53,3.03,0.00,0.00,0.11
0,27.95,18.99,4.00,8.28,12.89,0.00,0.00,1.75,25.20,0.00,0.00,5.48,14.50,0.00,13.70,2.12,0.00,0.00,0.00,0.00,15.56,1.41,0.00,3.33,16.87,0.00,1.64,1.44,2.88,0.00,0.00,0.10
0,27.28,16.46,4.00,7.97,12.76,0.00,0.00,1.69,25.29,0.00,0.00,5.35,14.07,0.00,13.70,1.99,0.00,0.00,0.00,0.00,14.99,1.41,0.00,3.25,16.60,0.00,1.64,1.35,2.90,0.00,0.00,0.10
0,26.46,13.92,2.00,7.23,12.75,0.00,0.00,1.70,25.89,0.00,0.00,5.55,14.26,0.00,16.44,2.03,0.00,0.00,0.00,0.00,14.52,0.00,0.00,2.91,17.40,0.00,1.64,1.41,2.77,0.00,0.00,0.09
0,25.68,12.66,2.00,6.85,12.57,0.00,0.00,1.66,25.91,0.00,0.00,5.71,14.58,0.00,17.81,2.10,0.00,0.00,0.00,0.00,14.61,0.00,0.00,2.94,17.54,0.00,3.28,1.36,2.69,0.00,0.00,0.09
0,24.90,11.39,2.00,6.00,12.99,0.00,0.00,1.74,26.04,0.00,0.00,5.92,14.69,0.00,17.81,2.07,0.00,0.00,0.00,0.00,14.45,0.00,0.00,2.83,17.32,0.00,3.28,1.32,2.82,0.00,0.00,0.09
0,24.79,10.13,2.00,5.87,13.21,0.00,0.00,1.76,26.30,0.00,0.00,6.00,15.08,0.00,17.81,2.20,0.00,0.00,0.00,0.00,14.75,0.00,0.00,2.95,17.54,0.00,3.28,1.36,2.82,0.00,0.00,0.09
0,24.41,7.59,2.00,5.72,13.05,0.00,0.00,1.71,25.11,0.00,0.00,5.81,15.10,0.00,17.81,2.20,0.00,0.00,0.00,0.00,14.11,0.00,0.00,2.63,17.50,0.00,3.28,1.34,2.72,0.00,0.00,0.09
0,23.27,6.33,2.00,5.34,13.01,0.00,0.00,1.72,25.54,0.00,0.00,6.03,14.94,0.00,17.81,2.14,0.00,0.00,0.00,0.00,14.06,0.00,0.00,2.63,17.11,0.00,3.28,1.30,2.80,0.00,0.00,0.10
0,23.00,7.59,2.00,5.19,12.91,0.00,0.00,1.68,25.03,0.00,0.00,5.92,15.27,0.00,17.81,2.23,0.00,0.00,0.00,0.00,13.27,0.00,0.00,2.31,17.10,0.00,3.28,1.30,2.81,0.00,0.00,0.10
0,22.63,6.33,2.00,5.05,12.81,0.00,0.00,1.66,25.07,0.00,0.00,6.05,15.57,0.00,17.81,2.27,0.00,0.00,0.00,0.00,12.73,0.00,0.00,2.10,17.10,0.00,3.28,1.32,2.81,0.00,0.00,0.10
0,22.59,6.33,2.00,4.85,12.23,0.00,0.00,1.57,25.08,0.00,0.00,6.00,15.18,0.00,15.07,2.19,0.00,0.00,0.00,0.00,12.49,0.00,0.00,1.96,16.65,0.00,3.28,1.30,2.87,0.00,0.00,0.10
0,22.54,6.33,2.00,4.78,12.46,0.00,0.00,1.58,24.93,0.00,0.00,5.82,15.56,0.00,17.81,2.35,0.00,0.00,0.00,0.00,11.98,0.00,0.00,1.89,16.91,0.00,3.28,1.32,2.81,0.00,0.00,0.09
0,23.09,7.59,2.00,5.14,12.55,0.00,0.00,1.59,24.58,0.00,0.00,5.43,15.42,0.00,19.18,2.33,0.00,0.00,0.00,0.00,12.28,0.00,0.00,1.91,16.69,0.00,3.28,1.28,2.78,0.00,0.00,0.10
0,22.22,5.06,2.00,4.76,12.66,0.00,0.00,1.57,24.49,0.00,0.00,5.30,15.17,0.00,17.81,2.26,0.00,0.00,0.00,0.00,12.37,0.00,0.00,1.89,16.38,0.00,3.28,1.24,2.73,0.00,0.00,0.10
0,22.44,5.06,2.00,4.79,12.63,0.00,0.00,1.59,24.75,0.00,0.00,5.36,15.29,0.00,17.81,2.34,0.00,0.00,0.00,0.00,12.42,0.00,0.00,1.91,16.63,0.00,3.28,1.31,2.70,0.00,0.00,0.10
0,22.29,5.06,2.00,4.85,12.58,0.00,0.00,1.55,24.32,0.00,0.00,5.25,15.78,0.00,17.81,2.51,0.00,0.00,0.00,0.00,12.06,0.00,0.00,1.85,16.56,0.00,3.28,1.30,2.62,0.00,0.00,0.09
0,22.33,5.06,2.00,4.91,12.85,0.00,0.00,1.58,25.29,0.00,0.00,5.48,16.24,0.00,19.18,2.64,0.00,0.00,0.00,0.00,12.20,0.00,0.00,1.90,16.78,0.00,3.28,1.34,2.56,0.00,0.00,0.09
0,22.14,5.06,2.00,4.89,13.03,0.00,0.00,1.58,25.62,0.00,0.00,5.55,16.49,0.00,19.18,2.70,0.00,0.00,0.00,0.00,11.85,0.00,0.00,1.83,17.00,0.00,3.28,1.35,2.55,0.00,0.00,0.09
0,21.62,5.06,2.00,4.77,12.59,0.00,0.00,1.46,25.49,0.00,0.00,5.48,16.56,0.00,21.92,2.70,0.00,0.00,0.00,0.00,11.76,0.00,0.00,1.78,16.71,0.00,1.64,1.37,2.63,0.00,0.00,0.09
0,21.13,5.06,2.00,4.67,12.37,0.00,0.00,1.40,25.07,0.00,0.00,5.43,16.53,0.00,21.92,2.70,0.00,0.00,0.00,0.00,11.87,0.00,0.00,1.84,17.12,0.00,1.64,1.44,2.79,0.00,0.00,0.10
0,21.75,5.06,2.00,4.77,12.53,0.00,0.00,1.46,24.74,0.00,0.00,5.29,16.21,0.00,20.55,2.60,0.00,0.00,0.00,0.00,12.15,0.00,0.00,1.91,18.09,0.00,3.28,1.56,2.64,0.00,0.00,0.10
0,21.62,5.06,2.00,4.59,12.98,0.00,0.00,1.52,24.73,0.00,0.00,4.96,16.60,0.00,23.29,2.60,0.00,0.00,0.00,0.00,11.65,0.00,0.00,1.85,18.22,0.00,3.28,1.62,2.81,0.00,0.00,0.11
0,21.15,5.06,2.00,4.49,13.14,0.00,0.00,1.55,23.97,0.00,0.00,4.67,16.91,0.00,23.29,2.66,0.00,0.00,0.00,0.00,11.41,0.00,0.00,1.68,18.15,0.00,3.28,1.61,2.78,0.00,0.00,0.11
