0,22.27,6.33,2.00,5.23,21.12,0.00,0.00,3.98,21.73,0.00,0.00,3.20,14.11,0.00,12.33,1.76,0.00,0.00,0.00,0.00,16.20,1.41,0.00,3.91,20.60,0.00,8.20,2.20,3.20,0.00,0.00,0.13
0,22.05,6.33,2.00,4.97,21.61,0.00,0.00,4.23,21.85,0.00,0.00,3.04,13.79,0.00,12.33,1.64,0.00,0.00,0.00,0.00,15.48,1.41,0.00,3.61,19.99,0.00,6.56,2.02,3.24,0.00,0.00,0.13
0,22.17,6.33,2.00,4.87,21.45,0.00,0.00,4.17,22.23,0.00,0.00,3.17,13.58,0.00,12.33,1.62,0.00,0.00,0.00,0.00,15.10,1.41,0.00,3.37,19.14,0.00,4.92,1.90,3.01,0.00,0.00,0.11
0,22.29,6.33,2.00,4.90,21.66,0.00,0.00,4.21,21.57,0.00,0.00,3.12,13.39,0.00,12.33,1.59,0.00,0.00,0.00,0.00,15.00,1.41,0.00,3.36,19.28,0.00,4.92,1.95,3.15,0.00,0.00,0.12
0,20.68,3.80,2.00,4.29,21.19,0.00,0.00,4.14,22.34,0.00,0.00,3.30,13.27,0.00,10.96,1.55,0.00,0.00,0.00,0.00,14.66,1.41,0.00,3.26,19.43,0.00,4.92,2.05,3.12,0.00,0.00,0.12
0,21.26,3.80,2.00,4.43,21.21,0.00,0.00,4.06,22.17,0.00,0.00,3.18,13.37,0.00,10.96,1.60,0.00,0.00,0.00,0.00,15.01,1.41,0.00,3.33,19.28,0.00,4.92,2.02,3.10,0.00,0.00,0.12
0,21.57,3.80,2.00,4.60,20.70,0.00,0.00,4.10,21.97,0.00,0.00,3.09,13.09,0.00,9.59,1.52,0.00,0.00,0.00,0.00,14.93,1.41,0.00,3.31,19.96,0.00,6.56,2.17,3.07,0.00,0.00,0.12
0,19.99,1.27,0.00,3.78,19.42,0.00,0.00,3.51,22.07,0.00,0.00,3.16,13.30,0.00,9.59,1.60,0.00,0.00,0.00,0.00,14.20,0.00,0.00,2.95,19.50,0.00,6.56,2.07,3.02,0.00,0.00,0.12
0,19.67,1.27,0.00,3.62,19.29,0.00,0.00,3.49,21.26,0.00,0.00,3.01,13.16,0.00,9.59,1.58,0.00,0.00,0.00,0.00,13.38,0.00,0.00,2.65,19.47,0.00,6.56,2.07,3.03,0.00,0.00,0.12
0,19.40,1.27,0.00,3.52,19.45,0.00,0.00,3.55,22.23,0.00,0.00,3.35,13.29,0.00,8.22,1.66,0.00,0.00,0.00,0.00,13.71,0.00,0.00,2.74,19.30,0.00,6.56,2.05,3.00,0.00,0.00,0.12
0,19.38,1.27,0.00,3.54,20.01,0.00,0.00,3.75,22.22,0.00,0.00,3.36,12.76,0.00,6.85,1.55,0.00,0.00,0.00,0.00,13.77,0.00,0.00,2.78,18.89,0.00,6.56,2.01,3.04,0.00,0.00,0.12
0,20.80,2.53,0.00,3.99,20.29,0.00,0.00,3.79,22.25,0.00,0.00,3.41,13.29,0.00,8.22,1.72,0.00,0.00,0.00,0.00,13.33,0.00,0.00,2.43,18.34,0.00,6.56,1.91,3.03,0.00,0.00,0.12
0,21.36,2.53,0.00,4.12,19.76,0.00,0.00,3.66,22.49,0.00,0.00,3.55,13.16,0.00,8.22,1.67,0.00,0.00,0.00,0.00,13.33,0.00,0.00,2.45,17.98,0.00,6.56,1.87,3.12,0.00,0.00,0.13
0,21.51,2.53,0.00,4.09,19.29,0.00,0.00,3.60,23.11,0.00,0.00,3.79,13.54,0.00,9.59,1.72,0.00,0.00,0.00,0.00,12.80,0.00,0.00,2.33,17.97,0.00,6.56,1.88,3.02,0.00,0.00,0.11
0,21.26,2.53,0.00,4.06,18.79,0.00,0.00,3.48,23.03,0.00,0.00,3.79,13.39,0.00,8.22,1.74,0.00,0.00,0.00,0.00,12.81,0.00,0.00,2.34,17.80,0.00,6.56,1.84,3.04,0.00,0.00,0.11
0,20.86,2.53,0.00,3.99,18.72,0.00,0.00,3.45,23.90,0.00,0.00,4.11,13.43,0.00,8.22,1.74,0.00,0.00,0.00,0.00,13.24,0.00,0.00,2.52,17.96,0.00,6.56,1.82,3.06,0.00,0.00,0.12
0,22.35,3.80,0.00,4.34,18.00,0.00,0.00,3.13,24.15,0.00,0.00,4.23,13.96,0.00,9.59,1.90,0.00,0.00,0.00,0.00,13.56,0.00,0.00,2.57,17.54,0.00,4.92,1.63,3.04,0.00,0.00,0.11
0,23.48,5.06,0.00,5.58,17.34,0.00,0.00,2.96,23.97,0.00,0.00,4.23,13.76,0.00,9.59,1.87,0.00,0.00,0.00,0.00,14.32,0.00,0.00,2.75,17.54,0.00,4.92,1.60,3.12,0.00,0.00,0.12
0,23.22,6.33,0.00,5.78,16.59,0.00,0.00,2.73,24.35,0.00,0.00,4.27,14.10,0.00,10.96,1.96,0.00,0.00,0.00,0.00,14.75,0.00,0.00,3.14,18.04,0.00,6.56,1.71,3.16,0.00,0.00,0.12
0,25.07,8.86,2.00,6.69,16.46,0.00,0.00,2.69,24.63,0.00,0.00,4.31,14.24,0.00,10.96,1.94,0.00,0.00,0.00,0.00,15.07,0.00,0.00,3.48,18.03,0.00,6.56,1.70,3.18,0.00,0.00,0.11
0,26.29,10.13,4.00,7.76,16.46,0.00,0.00,2.68,25.17,0.00,0.00,4.65,14.05,0.00,10.96,1.93,0.00,0.00,0.00,0.00,15.61,0.00,0.00,3.88,19.03,0.00,8.20,1.94,3.32,0.00,0.00,0.12
0,27.30,11.39,4.00,8.18,16.37,0.00,0.00,2.66,24.77,0.00,0.00,4.53,14.15,0.00,12.33,1.95,0.00,0.00,0.00,0.00,15.66,0.00,0.00,4.03,19.00,0.00,8.20,1.96,3.24,0.00,0.00,0.11
0,27.89,12.66,4.00,8.36,15.57,0.00,0.00,2.41,24.81,0.00,0.00,4.52,14.57,0.00,13.70,2.07,0.00,0.00,0.00,0.00,16.38,0.00,0.00,4.29,18.83,0.00,8.20,1.94,3.17,0.00,0.00,0.11
0,27.94,13.92,4.00,8.40,16.36,0.00,0.00,2.57,24.75,0.00,0.00,4.46,14.21,0.00,10.96,1.96,0.00,0.00,0.00,0.00,16.47,0.00,0.00,4.39,18.80,0.00,8.20,1.95,3.21,0.00,0.00,0.11
0,28.80,15.19,4.00,8.98,15.94,0.00,0.00,2.50,24.59,0.00,0.00,4.38,14.63,0.00,12.33,2.08,0.00,0.00,0.00,0.00,16.81,0.00,0.00,4.46,18.64,0.00,8.20,1.90,3.10,0.00,0.00,0.10
0,31.26,17.72,6.00,10.60,15.93,0.00,0.00,2.51,24.12,0.00,0.00,4.21,15.09,0.00,13.70,2.28,0.00,0.00,0.00,0.00,17.97,2.82,0.00,5.08,18.09,0.00,6.56,1.75,3.12,0.00,0.00,0.10
0,31.59,18.99,6.00,10.69,16.14,0.00,0.00,2.55,24.24,0.00,0.00,4.28,15.33,0.00,13.70,2.33,0.00,0.00,0.00,0.00,17.97,2.82,0.00,5.04,17.52,0.00,6.56,1.65,3.09,0.00,0.00,0.10
0,32.49,22.78,6.00,11.22,16.52,0.00,0.00,2.49,23.66,0.00,0.00,4.23,15.31,0.00,13.70,2.38,0.00,0.00,0.00,0.00,17.60,2.82,0.00,4.92,17.13,0.00,4.92,1.52,3.03,0.00,0.00,0.10
0,33.23,22.78,6.00,11.50,16.80,0.00,0.00,2.57,24.13,0.00,0.00,4.32,15.14,0.00,13.70,2.32,0.00,0.00,0.00,0.00,17.97,2.82,0.00,5.04,17.58,0.00,4.92,1.57,3.02,0.00,0.00,0.10
0,33.18,22.78,6.00,11.51,16.77,0.00,0.00,2.54,23.85,0.00,0.00,4.31,15.60,0.00,13.70,2.43,0.00,0.00,0.00,0.00,18.09,2.82,0.00,5.18,17.72,0.00,4.92,1.57,3.04,0.00,0.00,0.10
0,33.24,22.78,6.00,11.56,17.02,0.00,0.00,2.57,23.46,0.00,0.00,4.13,15.52,0.00,13.70,2.45,0.00,0.00,0.00,0.00,17.84,2.82,0.00,5.07,18.09,0.00,4.92,1.61,3.03,0.00,0.00,0.10
0,33.59,22.78,6.00,11.62,16.43,0.00,0.00,2.42,23.07,0.00,0.00,4.04,15.79,0.00,15.07,2.55,0.00,0.00,0.00,0.00,18.48,2.82,0.00,5.37,18.27,0.00,4.92,1.64,3.04,0.00,0.00,0.10
0,32.37,21.52,6.00,11.21,17.30,0.00,0.00,2.62,23.32,0.00,0.00,4.03,15.34,0.00,13.70,2.46,0.00,0.00,0.00,0.00,18.80,2.82,0.00,5.45,18.98,0.00,4.92,1.73,3.11,0.00,0.00,0.10
0,32.12,22.78,6.00,11.11,17.42,0.00,0.00,2.64,23.59,0.00,0.00,4.11,15.33,0.00,13.70,2.39,0.00,0.00,0.00,0.00,18.80,2.82,0.00,5.42,19.66,0.00,4.92,1.81,3.05,0.00,0.00,0.10
0,32.69,24.05,6.00,11.48,17.52,0.00,0.00,2.58,22.52,0.00,0.00,3.81,15.23,0.00,15.07,2.41,0.00,0.00,0.00,0.00,19.02,2.82,0.00,5.46,19.49,0.00,4.92,1.77,3.10,0.00,0.00,0.11
0,32.99,24.05,6.00,11.64,17.12,0.00,0.00,2.52,22.76,0.00,0.00,3.90,15.31,0.00,16.44,2.40,0.00,0.00,0.00,0.00,19.74,2.82,0.00,5.70,19.81,0.00,4.92,1.78,3.17,0.00,0.00,0.11
0,34.44,25.32,6.00,12.01,16.92,0.00,0.00,2.50,21.81,0.00,0.00,3.69,15.21,0.00,16.44,2.41,0.00,0.00,0.00,0.00,19.18,2.82,0.00,5.48,19.80,0.00,4.92,1.80,3.04,0.00,0.00,0.10
0,34.52,26.58,6.00,12.54,16.58,0.00,0.00,2.38,21.79,0.00,0.00,3.57,14.52,0.00,15.07,2.25,0.00,0.00,0.00,0.00,19.27,2.82,0.00,5.52,20.76,0.00,8.20,2.00,3.11,0.00,0.00,0.11
0,34.12,26.58,6.00,11.58,17.04,0.00,0.00,2.50,22.11,0.00,0.00,3.52,14.58,0.00,15.07,2.21,0.00,0.00,0.00,0.00,18.90,2.82,0.00,5.35,20.56,0.00,8.20,1.99,3.11,0.00,0.00,0.11
0,33.31,25.32,6.00,11.26,17.10,0.00,0.00,2.55,22.44,0.00,0.00,3.86,14.50,0.00,15.07,2.18,0.00,0.00,0.00,0.00,17.70,2.82,0.00,4.96,19.17,0.00,4.92,1.73,3.08,0.00,0.00,0.11
0,31.73,24.05,4.00,10.25,16.79,0.00,0.00,2.44,21.77,0.00,0.00,3.84,14.46,0.00,16.44,2.16,0.00,0.00,0.00,0.00,16.79,2.82,0.00,4.23,19.14,0.00,4.92,1.73,2.99,0.00,0.00,0.10
0,30.10,20.25,2.00,9.07,17.22,0.00,0.00,2.49,20.85,0.00,0.00,3.49,14.94,0.00,17.81,2.25,0.00,0.00,0.00,0.00,16.08,2.82,0.00,3.92,18.54,0.00,3.28,1.60,2.90,0.00,0.00,0.10
0,30.97,21.52,4.00,9.43,17.30,0.00,0.00,2.54,21.05,0.00,0.00,3.59,15.10,0.00,16.44,2.37,0.00,0.00,0.00,0.00,16.39,2.82,0.00,3.91,18.30,0.00,3.28,1.53,2.86,0.00,0.00,0.09
0,30.34,21.52,4.00,9.51,17.53,0.00,0.00,2.54,21.55,0.00,0.00,3.78,14.98,0.00,15.07,2.32,0.00,0.00,0.00,0.00,16.40,2.82,0.00,3.90,18.49,0.00,3.28,1.54,2.86,0.00,0.00,0.09
0,29.75,20.25,4.00,9.30,16.96,0.00,0.00,2.45,20.98,0.00,0.00,3.76,14.76,0.00,15.07,2.33,0.00,0.00,0.00,0.00,16.06,2.82,0.00,3.73,18.60,0.00,3.28,1.57,2.91,0.00,0.00,0.09
0,29.48,18.99,4.00,8.92,17.49,0.00,0.00,2.62,21.20,0.00,0.00,3.93,14.91,0.00,15.07,2.38,0.00,0.00,0.00,0.00,16.18,2.82,0.00,3.73,18.95,0.00,3.28,1.61,2.86,0.00,0.00,0.09
0,26.52,16.46,2.00,7.19,18.01,0.00,0.00,2.72,21.28,0.00,0.00,3.99,14.71,0.00,15.07,2.33,0.00,0.00,0.00,0.00,14.82,0.00,0.00,3.07,19.14,0.00,3.28,1.62,2.91,0.00,0.00,0.10
0,26.54,16.46,2.00,7.09,18.43,0.00,0.00,2.77,21.36,0.00,0.00,4.01,14.74,0.00,16.44,2.33,0.00,0.00,0.00,0.00,15.01,0.00,0.00,3.13,19.78,0.00,4.92,1.70,2.91,0.00,0.00,0.10
0,24.56,11.39,2.00,6.27,18.37,0.00,0.00,2.80,22.13,0.00,0.00,4.07,14.66,0.00,16.44,2.27,0.00,0.00,0.00,0.00,15.22,0.00,0.00,3.24,20.25,0.00,4.92,1.77,2.95,0.00,0.00,0.10
0,25.02,11.39,2.00,6.39,18.47,0.00,0.00,2.86,21.73,0.00,0.00,3.92,14.93,0.00,16.44,2.40,0.00,0.00,0.00,0.00,16.10,1.41,0.00,3.47,20.75,0.00,6.56,1.86,2.98,0.00,0.00,0.10
0,24.80,11.39,2.00,6.31,18.23,0.00,0.00,2.75,21.76,0.00,0.00,3.89,14.90,0.00,16.44,2.40,0.00,0.00,0.00,0.00,15.74,1.41,0.00,3.37,21.06,0.00,9.84,1.99,2.95,0.00,0.00,0.10
0,24.20,11.39,2.00,6.14,18.26,0.00,0.00,2.87,21.82,0.00,0.00,3.89,14.64,0.00,16.44,2.32,0.00,0.00,0.00,0.00,15.69,1.41,0.00,3.36,20.92,0.00,9.84,1.98,3.00,0.00,0.00,0.10
0,23.68,11.39,2.00,5.99,18.37,0.00,0.00,2.86,21.91,0.00,0.00,4.08,14.37,0.00,16.44,2.21,0.00,0.00,0.00,0.00,16.13,2.82,0.00,3.70,21.01,0.00,9.84,1.97,3.02,0.00,0.00,0.09
0,24.86,12.66,2.00,6.57,17.51,0.00,0.00,2.66,22.19,0.00,0.00,4.09,14.93,0.00,17.81,2.35,0.00,0.00,0.00,0.00,15.91,2.82,0.00,3.67,20.73,0.00,9.84,1.93,2.91,0.00,0.00,0.09
0,25.26,12.66,2.00,6.80,17.48,0.00,0.00,2.62,21.93,0.00,0.00,4.10,15.05,0.00,17.81,2.46,0.00,0.00,0.00,0.00,16.05,2.82,0.00,3.73,20.88,0.00,9.84,2.00,2.90,0.00,0.00,0.09
0,24.29,10.13,2.00,6.42,17.53,0.00,0.00,2.65,22.24,0.00,0.00,4.12,14.91,0.00,16.44,2.45,0.00,0.00,0.00,0.00,16.19,2.82,0.00,3.69,20.95,0.00,9.84,1.99,2.89,0.00,0.00,0.09
0,23.99,10.13,2.00,6.18,17.71,0.00,0.00,2.66,22.13,0.00,0.00,4.10,14.85,0.00,15.07,2.42,0.00,0.00,0.00,0.00,15.69,2.82,0.00,3.47,20.86,0.00,9.84,1.98,2.77,0.00,0.00,0.08
0,22.95,8.86,2.00,5.84,17.83,0.00,0.00,2.79,22.41,0.00,0.00,4.13,14.70,0.00,15.07,2.35,0.00,0.00,0.00,0.00,15.47,2.82,0.00,3.44,20.68,0.00,9.84,1.95,2.85,0.00,0.00,0.09
0,22.00,7.59,2.00,5.03,17.78,0.00,0.00,2.72,22.12,0.00,0.00,4.07,14.89,0.00,15.07,2.36,0.00,0.00,0.00,0.00,15.24,2.82,0.00,3.28,19.40,0.00,6.56,1.72,2.79,0.00,0.00,0.08
0,20.78,5.06,2.00,4.82,17.48,0.00,0.00,2.64,22.07,0.00,0.00,4.11,15.17,0.00,17.81,2.40,0.00,0.00,0.00,0.00,14.86,2.82,0.00,3.22,19.35,0.00,6.56,1.73,2.78,0.00,0.00,0.08
0,20.99,6.33,2.00,4.92,18.09,0.00,0.00,2.79,21.55,0.00,0.00,3.82,14.92,0.00,16.44,2.33,0.00,0.00,0.00,0.00,15.15,2.82,0.00,3.33,19.71,0.00,6.56,1.80,2.76,0.00,0.00,0.08
0,21.36,6.33,2.00,4.99,18.29,0.00,0.00,2.82,22.53,0.00,0.00,4.13,15.41,0.00,16.44,2.52,0.00,0.00,0.00,0.00,15.17,2.82,0.00,3.32,19.72,0.00,6.56,1.79,2.82,0.00,0.00,0.08
0,21.02,6.33,2.00,4.95,17.84,0.00,0.00,2.73,22.62,0.00,0.00,4.22,15.34,0.00,17.81,2.49,0.00,0.00,0.00,0.00,15.41,2.82,0.00,3.31,19.65,0.00,6.56,1.74,2.88,0.00,0.00,0.09
0,20.78,6.33,2.00,5.01,18.01,0.00,0.00,2.74,22.39,0.00,0.00,4.15,15.21,0.00,17.81,2.39,0.00,0.00,0.00,0.00,15.07,2.82,0.00,3.33,19.87,0.00,6.56,1.75,2.95,0.00,0.00,0.10
0,19.31,2.53,0.00,3.97,17.93,0.00,0.00,2.78,22.47,0.00,0.00,4.05,15.36,0.00,19.18,2.41,0.00,0.00,0.00,0.00,14.58,2.82,0.00,3.06,19.76,0.00,6.56,1.74,2.92,0.00,0.00,0.10
0,19.36,2.53,0.00,3.97,17.71,0.00,0.00,2.77,23.04,0.00,0.00,4.17,15.79,0.00,20.55,2.55,0.00,0.00,0.00,0.00,14.01,2.82,0.00,2.91,19.63,0.00,6.56,1.73,2.86,0.00,0.00,0.09
0,19.60,2.53,0.00,4.01,17.29,0.00,0.00,2.58,22.93,0.00,0.00,3.96,15.76,0.00,20.55,2.52,0.00,0.00,0.00,0.00,14.17,2.82,0.00,2.96,19.54,0.00,6.56,1.71,2.90,0.00,0.00,0.10
0,19.99,2.53,0.00,4.19,17.51,0.00,0.00,2.70,23.56,0.00,0.00,4.06,15.83,0.00,20.55,2.51,0.00,0.00,0.00,0.00,14.39,2.82,0.00,3.10,20.05,0.00,6.56,1.78,2.80,0.00,0.00,0.09
0,19.78,2.53,0.00,4.17,16.98,0.00,0.00,2.63,23.80,0.00,0.00,4.07,16.12,0.00,20.55,2.61,0.00,0.00,0.00,0.00,14.47,2.82,0.00,3.11,19.56,0.00,6.56,1.81,2.76,0.00,0.00,0.09
0,19.47,2.53,0.00,4.12,16.43,0.00,0.00,2.55,23.78,0.00,0.00,4.10,16.28,0.00,20.55,2.63,0.00,0.00,0.00,0.00,13.80,2.82,0.00,2.91,19.18,0.00,6.56,1.76,2.74,0.00,0.00,0.09
0,19.81,3.80,0.00,4.16,16.50,0.00,0.00,2.59,23.80,0.00,0.00,4.15,16.14,0.00,20.55,2.67,0.00,0.00,0.00,0.00,13.43,2.82,0.00,2.71,18.51,0.00,4.92,1.59,2.75,0.00,0.00,0.09
0,19.16,3.80,0.00,3.90,16.76,0.00,0.00,2.59,24.31,0.00,0.00,4.32,16.28,0.00,20.55,2.78,0.00,0.00,0.00,0.00,12.95,1.41,0.00,2.53,17.88,0.00,1.64,1.47,2.80,0.00,0.00,0.09
0,19.83,3.80,0.00,4.15,16.62,0.00,0.00,2.62,24.52,0.00,0.00,4.40,16.68,0.00,20.55,2.87,0.00,0.00,0.00,0.00,13.24,1.41,0.00,2.56,18.27,0.00,1.64,1.50,2.79,0.00,0.00,0.09
0,19.17,3.80,0.00,4.04,16.52,0.00,0.00,2.55,23.89,0.00,0.00,4.25,16.26,0.00,19.18,2.84,0.00,0.00,0.00,0.00,12.37,0.00,0.00,2.12,18.06,0.00,1.64,1.46,2.69,0.00,0.00,0.09
0,19.23,3.80,0.00,3.89,16.60,0.00,0.00,2.56,24.22,0.00,0.00,4.20,15.90,0.00,17.81,2.66,0.00,0.00,0.00,0.00,12.72,0.00,0.00,2.25,18.91,0.00,4.92,1.62,2.73,0.00,0.00,0.09
0,18.61,3.80,0.00,3.44,16.55,0.00,0.00,2.59,23.73,0.00,0.00,4.05,15.46,0.00,16.44,2.51,0.00,0.00,0.00,0.00,12.31,0.00,0.00,2.07,19.10,0.00,6.56,1.64,2.64,0.00,0.00,0.08
0,19.18,3.80,0.00,3.62,16.49,0.00,0.00,2.59,23.66,0.00,0.00,4.07,15.30,0.00,16.44,2.43,0.00,0.00,0.00,0.00,12.42,0.00,0.00,2.09,19.12,0.00,6.56,1.64,2.58,0.00,0.00,0.08
0,19.81,3.80,0.00,3.89,17.21,0.00,0.00,2.91,24.03,0.00,0.00,4.23,15.76,0.00,17.81,2.57,0.00,0.00,0.00,0.00,12.38,0.00,0.00,2.13,18.75,0.00,6.56,1.67,2.56,0.00,0.00,0.09
0,20.02,3.80,0.00,3.93,17.24,0.00,0.00,2.85,24.05,0.00,0.00,4.22,16.32,0.00,19.18,2.64,0.00,0.00,0.00,0.00,12.92,0.00,0.00,2.29,19.27,0.00,6.56,1.79,2.54,0.00,0.00,0.09
0,19.43,3.80,0.00,3.87,16.88,0.00,0.00,2.80,23.73,0.00,0.00,4.15,16.09,0.00,19.18,2.63,0.00,0.00,0.00,0.00,12.69,0.00,0.00,2.26,19.75,0.00,6.56,1.86,2.55,0.00,0.00,0.09
0,19.00,3.80,0.00,3.69,17.14,0.00,0.00,2.84,23.89,0.00,0.00,4.10,16.06,0.00,17.81,2.65,0.00,0.00,0.00,0.00,12.69,0.00,0.00,2.24,19.53,0.00,6.56,1.88,2.48,0.00,0.00,0.08
0,18.67,2.53,0.00,3.53,16.93,0.00,0.00,2.82,24.51,0.00,0.00,4.12,16.60,0.00,19.18,2.76,0.00,0.00,0.00,0.00,12.09,0.00,0.00,2.07,19.55,0.00,6.56,1.90,2.50,0.00,0.00,0.08
0,19.12,2.53,0.00,3.61,16.55,0.00,0.00,2.70,24.04,0.00,0.00,3.91,15.99,0.00,17.81,2.62,0.00,0.00,0.00,0.00,12.09,0.00,0.00,2.04,19.96,0.00,6.56,1.92,2.46,0.00,0.00,0.08
0,19.66,2.53,0.00,3.66,16.47,0.00,0.00,2.73,23.82,0.00,0.00,3.79,15.79,0.00,15.07,2.61,0.00,0.00,0.00,0.00,12.12,0.00,0.00,2.03,20.21,0.00,6.56,1.98,2.44,0.00,0.00,0.07
0,19.80,2.53,0.00,3.68,16.94,0.00,0.00,2.90,24.08,0.00,0.00,3.84,15.51,0.00,15.07,2.55,0.00,0.00,0.00,0.00,12.12,0.00,0.00,2.04,20.60,0.00,6.56,2.03,2.45,0.00,0.00,0.07
0,19.36,2.53,0.00,3.56,17.34,0.00,0.00,2.94,24.05,0.00,0.00,3.84,15.48,0.00,13.70,2.52,0.00,0.00,0.00,0.00,12.23,0.00,0.00,2.06,21.31,0.00,8.20,2.11,2.54,0.00,0.00,0.08
0,19.01,2.53,0.00,3.48,17.07,0.00,0.00,2.96,24.38,0.00,0.00,3.97,15.42,0.00,12.33,2.50,0.00,0.00,0.00,0.00,12.21,0.00,0.00,2.04,20.99,0.00,8.20,2.05,2.56,0.00,0.00,0.08
0,19.15,2.53,0.00,3.54,18.44,0.00,2.33,3.61,24.15,0.00,0.00,3.96,15.18,0.00,12.33,2.41,0.00,0.00,0.00,0.00,12.53,0.00,0.00,2.16,21.31,0.00,9.84,2.11,2.63,0.00,0.00,0.08
0,18.91,2.53,0.00,3.51,18.52,0.00,2.33,3.82,23.17,0.00,0.00,3.70,15.09,0.00,12.33,2.40,0.00,0.00,0.00,0.00,11.91,0.00,0.00,1.89,21.09,0.00,9.84,2.13,2.63,0.00,0.00,0.08
0,19.71,3.80,0.00,3.89,18.31,0.00,2.33,3.67,23.45,0.00,0.00,3.83,14.64,0.00,10.96,2.20,0.00,0.00,0.00,0.00,11.97,0.00,0.00,1.91,20.93,0.00,8.20,2.09,2.78,0.00,0.00,0.09
0,19.83,3.80,0.00,3.91,18.35,0.00,2.33,3.66,23.23,0.00,0.00,3.78,14.75,0.00,12.33,2.23,0.00,0.00,0.00,0.00,11.93,0.00,0.00,1.88,21.19,0.00,8.20,2.12,2.73,0.00,0.00,0.09
0,19.36,2.53,0.00,3.79,18.64,0.00,2.33,3.68,22.87,0.00,0.00,3.67,14.58,0.00,10.96,2.24,0.00,0.00,0.00,0.00,12.34,0.00,0.00,1.97,21.61,0.00,8.20,2.19,2.79,0.00,0.00,0.09
0,19.46,2.53,0.00,3.82,18.66,0.00,2.33,3.76,23.04,0.00,0.00,3.65,14.52,0.00,10.96,2.13,0.00,0.00,0.00,0.00,12.34,0.00,0.00,2.01,21.04,0.00,8.20,2.18,2.81,0.00,0.00,0.10
0,19.21,2.53,0.00,3.83,18.70,0.00,2.33,3.74,23.35,0.00,0.00,3.83,14.46,0.00,12.33,2.13,0.00,0.00,0.00,0.00,12.14,0.00,0.00,1.97,21.17,0.00,8.20,2.23,2.74,0.00,0.00,0.09
0,19.84,2.53,0.00,3.78,17.89,0.00,2.33,3.54,23.47,0.00,0.00,3.83,14.77,0.00,13.70,2.15,0.00,0.00,0.00,0.00,12.20,0.00,0.00,1.93,21.16,0.00,8.20,2.22,2.75,0.00,0.00,0.09
0,19.64,2.53,0.00,3.80,18.53,0.00,2.33,3.65,22.53,0.00,0.00,3.64,14.89,0.00,13.70,2.17,0.00,0.00,0.00,0.00,11.63,0.00,0.00,1.76,20.60,0.00,4.92,2.09,2.78,0.00,0.00,0.10
0,18.99,1.27,0.00,3.59,18.24,0.00,2.33,3.59,22.33,0.00,0.00,3.62,14.84,0.00,13.70,2.19,0.00,0.00,0.00,0.00,11.47,0.00,0.00,1.71,19.97,0.00,3.28,1.99,2.82,0.00,0.00,0.10
0,19.72,1.27,0.00,3.77,18.75,0.00,2.33,3.68,22.76,0.00,0.00,3.61,14.79,0.00,12.33,2.18,0.00,0.00,0.00,0.00,11.62,0.00,0.00,1.73,19.96,0.00,3.28,1.98,2.94,0.00,0.00,0.11
0,19.28,1.27,0.00,3.57,18.65,0.00,2.33,3.53,22.50,0.00,0.00,3.50,14.74,0.00,12.33,2.13,0.00,0.00,0.00,0.00,11.57,0.00,0.00,1.72,20.54,0.00,3.28,1.98,3.05,0.00,0.00,0.11
0,19.22,1.27,0.00,3.46,19.03,0.00,2.33,3.62,22.72,0.00,0.00,3.55,14.62,0.00,12.33,2.16,0.00,0.00,0.00,0.00,11.04,0.00,0.00,1.63,19.83,0.00,3.28,1.86,3.07,0.00,0.00,0.11
0,20.10,2.53,0.00,3.70,19.05,0.00,2.33,3.57,22.57,0.00,0.00,3.54,14.51,0.00,12.33,2.17,0.00,0.00,0.00,0.00,11.28,0.00,0.00,1.64,20.21,0.00,3.28,1.94,3.21,0.00,0.00,0.12
0,20.54,2.53,0.00,3.77,18.95,0.00,2.33,3.58,22.79,0.00,0.00,3.70,14.20,0.00,10.96,2.14,0.00,0.00,0.00,0.00,11.57,0.00,0.00,1.73,20.11,0.00,3.28,1.88,3.34,0.00,0.00,0.12
0,20.92,3.80,0.00,4.01,18.82,0.00,2.33,3.49,22.54,0.00,0.00,3.75,13.99,0.00,9.59,2.12,0.00,0.00,0.00,0.00,11.80,0.00,0.00,1.81,20.10,0.00,3.28,1.82,3.22,0.00,0.00,0.12
0,20.39,3.80,0.00,3.92,18.90,0.00,2.33,3.51,22.32,0.00,0.00,3.72,14.08,0.00,9.59,2.10,0.00,0.00,0.00,0.00,11.83,0.00,0.00,1.83,19.72,0.00,3.28,1.79,3.31,0.00,0.00,0.12
0,20.05,3.80,0.00,3.91,18.99,0.00,2.33,3.48,22.18,0.00,0.00,3.76,14.07,0.00,9.59,2.05,0.00,0.00,0.00,0.00,12.04,0.00,0.00,1.89,20.14,0.00,4.92,1.91,3.30,0.00,0.00,0.12
0,19.61,3.80,0.00,3.86,18.59,0.00,2.33,3.38,22.57,0.00,0.00,4.24,14.37,0.00,10.96,2.18,0.00,0.00,0.00,0.00,11.92,0.00,0.00,1.88,19.50,0.00,4.92,1.92,3.19,0.00,0.00,0.12
0,19.36,3.80,0.00,3.76,18.40,0.00,2.33,3.31,23.24,0.00,0.00,4.33,14.19,0.00,10.96,2.13,0.00,0.00,0.00,0.00,11.90,0.00,0.00,1.88,19.69,0.00,4.92,1.97,3.23,0.00,0.00,0.12
0,19.30,3.80,0.00,3.75,18.48,0.00,2.33,3.29,22.85,0.00,0.00,4.24,14.46,0.00,12.33,2.35,0.00,0.00,0.00,0.00,11.87,0.00,0.00,1.91,19.40,0.00,4.92,1.95,3.21,0.00,0.00,0.12
0,19.11,3.80,0.00,3.64,18.07,0.00,0.00,3.21,23.50,0.00,0.00,4.49,14.44,0.00,10.96,2.33,0.00,0.00,0.00,0.00,11.60,0.00,0.00,1.80,19.06,0.00,3.28,1.90,3.22,0.00,0.00,0.12
0,19.05,3.80,0.00,3.52,16.54,0.00,0.00,2.28,24.56,0.00,0.00,4.86,14.58,0.00,12.33,2.37,0.00,0.00,0.00,0.00,11.45,0.00,0.00,1.81,18.51,0.00,3.28,1.80,3.25,0.00,0.00,0.12
0,18.31,2.53,0.00,3.19,17.05,0.00,0.00,2.46,23.90,0.00,0.00,4.68,14.62,0.00,13.70,2.40,0.00,0.00,0.00,0.00,11.47,0.00,0.00,1.78,18.37,0.00,3.28,1.78,3.17,0.00,0.00,0.11
0,18.40,2.53,0.00,3.16,17.44,0.00,0.00,2.73,23.99,0.00,0.00,4.69,14.61,0.00,13.70,2.43,0.00,0.00,0.00,0.00,11.54,0.00,0.00,1.82,18.85,0.00,3.28,1.91,3.22,0.00,0.00,0.12
0,18.12,2.53,0.00,3.11,17.52,0.00,0.00,2.74,23.70,0.00,0.00,4.71,14.38,0.00,15.07,2.26,0.00,0.00,0.00,0.00,11.38,0.00,0.00,1.80,18.72,0.00,3.28,1.90,3.19,0.00,0.00,0.12
0,18.44,3.80,0.00,3.28,17.60,0.00,0.00,2.70,23.73,0.00,0.00,4.71,14.92,0.00,16.44,2.49,0.00,0.00,0.00,0.00,10.64,0.00,0.00,1.64,18.49,0.00,3.28,1.85,3.07,0.00,0.00,0.11
0,18.69,3.80,0.00,3.39,17.42,0.00,0.00,2.69,23.81,0.00,0.00,4.86,15.23,0.00,16.44,2.55,0.00,0.00,0.00,0.00,11.02,0.00,0.00,1.83,18.25,0.00,3.28,1.85,3.17,0.00,0.00,0.12
0,17.98,3.80,0.00,3.19,17.61,0.00,0.00,2.80,24.02,0.00,0.00,5.08,15.09,0.00,15.07,2.47,0.00,0.00,0.00,0.00,10.65,0.00,0.00,1.81,18.04,0.00,4.92,1.81,3.13,0.00,0.00,0.11
0,17.80,3.80,0.00,3.13,17.45,0.00,0.00,2.74,25.17,0.00,0.00,5.36,14.88,0.00,15.07,2.44,0.00,0.00,0.00,0.00,10.72,0.00,0.00,1.78,18.21,0.00,4.92,1.90,3.03,0.00,0.00,0.10
0,18.03,3.80,0.00,3.10,17.09,0.00,0.00,2.72,26.40,0.00,0.00,5.70,14.67,0.00,16.44,2.42,0.00,0.00,0.00,0.00,11.09,0.00,0.00,1.91,18.18,0.00,4.92,1.89,3.18,0.00,0.00,0.11
0,17.44,3.80,0.00,2.99,17.00,0.00,0.00,2.75,27.02,0.00,0.00,5.87,14.93,0.00,17.81,2.46,0.00,0.00,0.00,0.00,10.73,0.00,0.00,1.87,18.09,0.00,4.92,1.87,3.09,0.00,0.00,0.11
0,16.79,3.80,0.00,2.82,16.21,0.00,0.00,2.60,26.80,0.00,0.00,5.78,14.90,0.00,19.18,2.42,0.00,0.00,0.00,0.00,10.57,0.00,0.00,1.85,18.21,0.00,6.56,1.96,2.99,0.00,0.00,0.10
0,17.11,3.80,0.00,2.83,15.53,0.00,0.00,2.39,26.87,0.00,0.00,5.74,15.19,0.00,19.18,2.43,0.00,0.00,0.00,0.00,10.92,0.00,0.00,1.90,18.19,0.00,6.56,1.93,2.88,0.00,0.00,0.10
0,15.98,2.53,0.00,2.55,15.39,0.00,0.00,2.37,26.94,0.00,0.00,5.72,14.90,0.00,19.18,2.36,0.00,0.00,0.00,0.00,10.96,0.00,0.00,1.92,18.29,0.00,6.56,1.92,2.85,0.00,0.00,0.09
0,16.18,3.80,0.00,2.76,15.16,0.00,0.00,2.35,26.90,0.00,0.00,5.68,15.78,0.00,20.55,2.69,0.00,0.00,0.00,0.00,11.10,0.00,0.00,1.94,18.32,0.00,6.56,1.89,2.72,0.00,0.00,0.09
0,15.18,2.53,0.00,2.46,15.68,0.00,0.00,2.47,26.61,0.00,0.00,5.52,15.86,0.00,20.55,2.75,0.00,0.00,0.00,0.00,10.99,0.00,0.00,1.89,18.16,0.00,6.56,1.92,2.86,0.00,0.00,0.10
0,14.94,2.53,0.00,2.38,16.28,0.00,0.00,2.69,27.17,0.00,0.00,5.70,15.96,0.00,20.55,2.79,0.00,0.00,0.00,0.00,11.26,0.00,0.00,1.96,18.39,0.00,6.56,1.91,2.87,0.00,0.00,0.10
0,15.56,2.53,0.00,2.44,16.44,0.00,0.00,2.76,26.67,0.00,0.00,5.44,15.65,0.00,20.55,2.79,0.00,0.00,0.00,0.00,11.43,0.00,0.00,2.10,18.79,0.00,6.56,1.98,2.89,0.00,0.00,0.10
0,15.84,2.53,0.00,2.51,16.65,0.00,0.00,2.87,26.23,0.00,0.00,5.04,15.36,0.00,19.18,2.70,0.00,0.00,0.00,0.00,11.38,0.00,0.00,1.97,18.39,0.00,6.56,1.77,2.95,0.00,0.00,0.10
0,16.18,2.53,0.00,2.56,17.56,0.00,0.00,3.21,26.50,0.00,0.00,5.28,15.87,0.00,19.18,2.88,0.00,0.00,0.00,0.00,11.78,0.00,0.00,2.06,18.31,0.00,4.92,1.80,2.90,0.00,0.00,0.10
0,16.38,2.53,0.00,2.57,17.06,0.00,0.00,3.13,25.95,0.00,0.00,5.08,15.36,0.00,17.81,2.60,0.00,0.00,0.00,0.00,11.54,0.00,0.00,2.01,18.44,0.00,4.92,1.85,3.00,0.00,0.00,0.11
0,16.71,2.53,0.00,2.63,17.04,0.00,0.00,3.05,24.79,0.00,0.00,4.70,14.95,0.00,17.81,2.48,0.00,0.00,0.00,0.00,11.59,0.00,0.00,2.02,18.89,0.00,8.20,1.94,2.96,0.00,0.00,0.11
0,16.96,2.53,0.00,2.63,17.46,0.00,0.00,3.12,24.01,0.00,0.00,4.46,14.68,0.00,15.07,2.46,0.00,0.00,0.00,0.00,11.12,0.00,0.00,1.94,19.04,0.00,8.20,2.00,2.90,0.00,0.00,0.10
0,16.73,2.53,0.00,2.64,17.70,0.00,0.00,3.17,24.39,0.00,0.00,4.43,14.86,0.00,15.07,2.53,0.00,0.00,0.00,0.00,10.98,0.00,0.00,1.90,19.27,0.00,8.20,2.02,2.90,0.00,0.00,0.11
0,16.61,2.53,0.00,2.61,17.27,0.00,0.00,2.90,24.15,0.00,0.00,4.36,15.19,0.00,16.44,2.60,0.00,0.00,0.00,0.00,11.37,0.00,0.00,1.92,19.10,0.00,8.20,1.97,2.85,0.00,0.00,0.10
0,16.75,2.53,0.00,2.66,16.63,0.00,0.00,2.83,24.78,0.00,0.00,4.49,15.40,0.00,15.07,2.70,0.00,0.00,0.00,0.00,11.91,0.00,0.00,2.07,19.54,0.00,8.20,2.00,2.91,0.00,0.00,0.10
0,16.77,2.53,0.00,2.65,16.70,0.00,0.00,2.82,24.65,0.00,0.00,4.38,14.94,0.00,13.70,2.54,0.00,0.00,0.00,0.00,12.09,0.00,0.00,2.13,19.73,0.00,8.20,2.12,3.15,0.00,0.00,0.12
0,17.15,2.53,0.00,2.63,17.07,0.00,0.00,2.91,24.67,0.00,0.00,4.44,14.92,0.00,12.33,2.50,0.00,0.00,0.00,0.00,12.13,0.00,0.00,2.01,19.78,0.00,8.20,2.14,3.04,0.00,0.00,0.11
0,18.03,3.80,0.00,2.88,16.77,0.00,0.00,2.84,24.31,0.00,0.00,4.07,15.03,0.00,12.33,2.58,0.00,0.00,0.00,0.00,12.18,0.00,0.00,2.01,19.18,0.00,6.56,2.03,3.00,0.00,0.00,0.11
0,18.47,3.80,0.00,2.98,17.08,0.00,0.00,2.93,24.56,0.00,0.00,4.10,15.09,0.00,12.33,2.59,0.00,0.00,0.00,0.00,12.39,0.00,0.00,2.10,19.57,0.00,6.56,2.12,3.27,0.00,0.00,0.13
0,18.35,3.80,0.00,3.02,18.27,0.00,0.00,3.28,23.96,0.00,0.00,4.06,15.31,0.00,10.96,2.72,0.00,0.00,0.00,0.00,12.12,0.00,0.00,1.99,20.32,0.00,6.56,2.27,3.22,0.00,0.00,0.13
0,18.24,3.80,0.00,3.05,18.25,0.00,0.00,3.26,23.24,0.00,0.00,3.90,15.27,0.00,10.96,2.76,0.00,0.00,0.00,0.00,12.10,0.00,0.00,1.97,20.62,0.00,6.56,2.37,3.24,0.00,0.00,0.13
0,18.57,3.80,0.00,3.08,18.22,0.00,0.00,3.29,22.80,0.00,0.00,3.92,15.05,0.00,8.22,2.73,0.00,0.00,0.00,0.00,12.09,0.00,0.00,1.94,19.95,0.00,4.92,2.25,3.33,0.00,0.00,0.13
0,18.23,3.80,0.00,3.03,19.03,0.00,0.00,3.43,22.91,0.00,0.00,4.10,15.08,0.00,6.85,2.76,0.00,0.00,0.00,0.00,12.05,0.00,0.00,2.01,20.72,0.00,6.56,2.31,3.30,0.00,0.00,0.13
0,18.48,3.80,0.00,3.03,19.36,0.00,0.00,3.51,22.42,0.00,0.00,4.05,15.44,0.00,8.22,2.86,0.00,0.00,0.00,0.00,11.99,0.00,0.00,2.03,20.53,0.00,6.56,2.29,3.26,0.00,0.00,0.13
0,18.24,2.53,0.00,2.88,19.46,0.00,0.00,3.59,22.55,0.00,0.00,3.96,14.89,0.00,6.85,2.65,0.00,0.00,0.00,0.00,11.77,0.00,0.00,1.94,20.20,0.00,6.56,2.25,3.34,0.00,0.00,0.14
0,18.94,3.80,0.00,3.07,19.69,0.00,0.00,3.63,22.81,0.00,0.00,4.07,14.59,0.00,6.85,2.59,0.00,0.00,0.00,0.00,12.05,0.00,0.00,2.10,20.37,0.00,6.56,2.27,3.24,0.00,0.00,0.13
0,19.12,3.80,0.00,3.09,19.88,0.00,0.00,3.72,21.95,0.00,0.00,3.87,14.63,0.00,8.22,2.54,0.00,0.00,0.00,0.00,12.10,0.00,0.00,2.08,20.83,0.00,6.56,2.33,3.18,0.00,0.00,0.13
0,19.71,3.80,0.00,3.34,19.45,0.00,0.00,3.49,22.45,0.00,0.00,4.04,14.61,0.00,8.22,2.50,0.00,0.00,0.00,0.00,11.82,0.00,0.00,1.98,20.77,0.00,8.20,2.39,3.29,0.00,0.00,0.14
0,19.26,3.80,0.00,3.14,19.30,0.00,0.00,3.41,22.43,0.00,0.00,3.95,14.69,0.00,8.22,2.46,0.00,0.00,0.00,0.00,11.67,0.00,0.00,1.91,20.87,0.00,8.20,2.36,3.33,0.00,0.00,0.15
0,19.44,3.80,0.00,3.22,18.47,0.00,0.00,3.06,22.19,0.00,0.00,3.82,14.72,0.00,10.96,2.38,0.00,0.00,0.00,0.00,11.64,0.00,0.00,1.96,20.25,0.00,8.20,2.27,3.40,0.00,0.00,0.16
0,19.35,3.80,0.00,3.23,18.91,0.00,0.00,3.15,22.94,0.00,0.00,3.89,15.22,0.00,13.70,2.51,0.00,0.00,0.00,0.00,11.49,0.00,0.00,1.92,20.13,0.00,8.20,2.20,3.29,0.00,0.00,0.15
0,19.39,3.80,0.00,3.28,19.02,0.00,0.00,3.27,22.84,0.00,0.00,3.88,15.76,0.00,15.07,2.66,0.00,0.00,0.00,0.00,11.94,0.00,0.00,2.14,20.33,0.00,6.56,2.21,3.24,0.00,0.00,0.14
0,19.21,3.80,0.00,3.27,18.49,0.00,0.00,3.16,23.04,0.00,0.00,3.95,15.76,0.00,15.07,2.65,0.00,0.00,0.00,0.00,12.28,0.00,0.00,2.18,19.98,0.00,6.56,2.11,3.31,0.00,0.00,0.14
0,18.56,3.80,0.00,3.13,19.02,0.00,0.00,3.26,22.17,0.00,0.00,3.78,15.22,0.00,13.70,2.50,0.00,0.00,0.00,0.00,12.55,0.00,0.00,2.21,19.84,0.00,6.56,2.08,3.37,0.00,0.00,0.15
0,18.67,3.80,0.00,3.14,17.95,0.00,0.00,3.05,21.99,0.00,0.00,3.79,15.11,0.00,12.33,2.42,0.00,0.00,0.00,0.00,12.20,0.00,0.00,2.22,19.63,0.00,6.56,2.05,3.41,0.00,0.00,0.16
0,18.86,3.80,0.00,3.13,17.97,0.00,0.00,3.05,21.83,0.00,0.00,3.74,14.95,0.00,12.33,2.35,0.00,0.00,0.00,0.00,11.90,0.00,0.00,2.19,19.28,0.00,6.56,1.99,3.44,0.00,0.00,0.17
0,18.71,5.06,0.00,3.10,17.86,0.00,0.00,3.02,21.81,0.00,0.00,3.76,15.02,0.00,13.70,2.31,0.00,0.00,0.00,0.00,11.69,0.00,0.00,2.06,19.61,0.00,8.20,1.95,3.27,0.00,0.00,0.15
0,18.28,5.06,0.00,3.00,17.48,0.00,0.00,2.97,21.72,0.00,0.00,3.77,14.88,0.00,13.70,2.28,0.00,0.00,0.00,0.00,11.22,0.00,0.00,2.00,19.79,0.00,8.20,1.99,3.23,0.00,0.00,0.15
0,17.55,3.80,0.00,2.80,17.46,0.00,0.00,2.90,21.64,0.00,0.00,3.76,14.72,0.00,13.70,2.22,0.00,0.00,0.00,0.00,11.29,0.00,0.00,2.02,19.88,0.00,8.20,2.00,3.50,0.00,0.00,0.18
0,17.33,3.80,0.00,2.83,17.50,0.00,0.00,3.03,21.83,0.00,0.00,4.07,15.19,0.00,15.07,2.39,0.00,0.00,0.00,0.00,11.67,0.00,0.00,2.08,19.39,0.00,8.20,1.85,3.30,0.00,0.00,0.16
0,17.36,3.80,0.00,2.75,16.67,0.00,0.00,2.71,21.33,0.00,0.00,3.91,15.14,0.00,15.07,2.32,0.00,0.00,0.00,0.00,11.41,0.00,0.00,2.08,18.27,0.00,8.20,1.68,3.27,0.00,0.00,0.16
0,17.53,3.80,0.00,2.78,16.67,0.00,0.00,2.73,21.73,0.00,0.00,4.02,14.59,0.00,13.70,2.22,0.00,0.00,0.00,0.00,11.37,0.00,0.00,2.08,17.90,0.00,8.20,1.53,3.21,0.00,0.00,0.16
0,17.19,3.80,0.00,2.67,16.51,0.00,0.00,2.61,22.22,0.00,0.00,4.21,14.69,0.00,15.07,2.21,0.00,0.00,0.00,0.00,11.78,0.00,0.00,2.29,18.76,0.00,8.20,1.67,3.19,0.00,0.00,0.16
0,17.24,3.80,0.00,2.69,16.16,0.00,0.00,2.54,21.83,0.00,0.00,3.98,14.57,0.00,15.07,2.17,0.00,0.00,0.00,0.00,11.35,0.00,0.00,2.21,18.24,0.00,6.56,1.62,3.24,0.00,0.00,0.16
0,17.02,3.80,0.00,2.68,16.13,0.00,0.00,2.63,22.15,0.00,0.00,3.94,14.17,0.00,13.70,2.07,0.00,0.00,0.00,0.00,11.19,0.00,0.00,2.18,18.13,0.00,6.56,1.62,3.30,0.00,0.00,0.16
0,16.78,3.80,0.00,2.58,16.46,0.00,0.00,2.66,23.07,0.00,0.00,4.63,14.28,0.00,13.70,2.04,0.00,0.00,0.00,0.00,11.17,0.00,0.00,2.14,18.40,0.00,6.56,1.68,3.22,0.00,0.00,0.15
0,16.25,2.53,0.00,2.41,15.71,0.00,0.00,2.49,22.65,0.00,0.00,4.51,14.44,0.00,13.70,2.03,0.00,0.00,0.00,0.00,10.78,0.00,0.00,2.00,18.69,0.00,6.56,1.76,3.27,0.00,0.00,0.16
0,16.64,2.53,0.00,2.50,15.89,0.00,0.00,2.51,22.41,0.00,0.00,4.48,14.60,0.00,12.33,2.09,0.00,0.00,0.00,0.00,11.30,0.00,0.00,2.11,18.94,0.00,6.56,1.79,3.23,0.00,0.00,0.15
0,16.13,2.53,0.00,2.37,15.60,0.00,0.00,2.46,22.86,0.00,0.00,4.61,14.67,0.00,13.70,2.15,0.00,0.00,0.00,0.00,10.85,0.00,0.00,1.97,18.25,0.00,3.28,1.67,3.16,0.00,0.00,0.14
0,16.21,2.53,0.00,2.35,14.97,0.00,0.00,2.36,22.85,0.00,0.00,4.48,14.87,0.00,13.70,2.19,0.00,0.00,0.00,0.00,10.77,0.00,0.00,1.98,18.32,0.00,3.28,1.64,3.07,0.00,0.00,0.13
0,15.76,2.53,0.00,2.29,15.42,0.00,0.00,2.44,23.65,0.00,0.00,4.79,14.45,0.00,12.33,2.14,0.00,0.00,0.00,0.00,10.48,0.00,0.00,1.80,18.60,0.00,3.28,1.62,3.14,0.00,0.00,0.14
0,16.02,2.53,0.00,2.32,15.62,0.00,0.00,2.51,22.72,0.00,0.00,4.58,13.92,0.00,9.59,2.01,0.00,0.00,0.00,0.00,10.64,0.00,0.00,1.83,18.81,0.00,3.28,1.62,3.21,0.00,0.00,0.14
0,17.26,5.06,0.00,3.15,15.67,0.00,0.00,2.41,22.52,0.00,0.00,4.59,13.85,0.00,9.59,1.99,0.00,0.00,0.00,0.00,10.67,0.00,0.00,1.83,18.26,0.00,1.64,1.54,3.26,0.00,0.00,0.14
0,17.07,5.06,0.00,3.15,15.70,0.00,0.00,2.46,22.19,0.00,0.00,4.51,13.94,0.00,9.59,1.98,0.00,0.00,0.00,0.00,10.95,0.00,0.00,1.94,18.69,0.00,1.64,1.65,3.27,0.00,0.00,0.14
0,17.71,6.33,0.00,3.36,15.20,0.00,0.00,2.37,22.46,0.00,0.00,4.53,13.80,0.00,9.59,1.96,0.00,0.00,0.00,0.00,10.88,0.00,0.00,1.92,19.07,0.00,3.28,1.72,3.20,0.00,0.00,0.14
0,18.14,6.33,0.00,3.52,15.87,0.00,0.00,2.54,22.81,0.00,0.00,4.63,13.64,0.00,9.59,1.97,0.00,0.00,0.00,0.00,10.95,0.00,0.00,1.92,19.17,0.00,3.28,1.68,3.16,0.00,0.00,0.14
0,18.49,7.59,0.00,3.78,16.52,0.00,0.00,2.64,23.07,0.00,0.00,4.93,14.67,0.00,12.33,2.60,0.00,0.00,0.00,0.00,11.45,0.00,0.00,2.14,19.78,0.00,6.56,1.79,3.13,0.00,0.00,0.13
0,18.12,5.06,0.00,3.56,16.85,0.00,0.00,2.74,23.59,0.00,0.00,5.16,15.01,0.00,12.33,2.68,0.00,0.00,0.00,0.00,11.93,0.00,0.00,2.22,19.10,0.00,4.92,1.70,3.13,0.00,0.00,0.13
0,18.87,5.06,0.00,3.85,16.65,0.00,0.00,2.70,23.22,0.00,0.00,4.99,14.99,0.00,12.33,2.66,0.00,0.00,0.00,0.00,12.64,0.00,0.00,2.51,18.66,0.00,4.92,1.58,3.30,0.00,0.00,0.15
0,19.76,6.33,0.00,4.23,16.86,0.00,0.00,2.74,24.00,0.00,0.00,5.12,14.89,0.00,12.33,2.63,0.00,0.00,0.00,0.00,13.25,0.00,0.00,2.75,19.25,0.00,6.56,1.75,3.20,0.00,0.00,0.13
0,19.85,6.33,0.00,4.27,16.67,0.00,0.00,2.61,23.37,0.00,0.00,4.77,14.38,0.00,10.96,2.44,0.00,0.00,0.00,0.00,13.38,0.00,0.00,2.75,20.36,0.00,8.20,1.98,3.21,0.00,0.00,0.13
0,22.28,8.86,4.00,5.40,16.27,0.00,0.00,2.58,23.25,0.00,0.00,4.48,14.44,0.00,12.33,2.42,0.00,0.00,0.00,0.00,13.64,0.00,0.00,2.85,20.51,0.00,8.20,2.05,3.20,0.00,0.00,0.13
0,23.16,10.13,4.00,5.89,16.90,0.00,0.00,2.80,22.99,0.00,0.00,4.46,15.00,0.00,13.70,2.57,0.00,0.00,0.00,0.00,14.80,0.00,0.00,3.40,21.06,0.00,9.84,2.25,3.23,0.00,0.00,0.13
0,23.84,10.13,4.00,6.06,18.08,0.00,0.00,3.19,22.92,0.00,0.00,4.32,15.15,0.00,13.70,2.59,0.00,0.00,0.00,0.00,15.11,0.00,0.00,3.57,20.89,0.00,9.84,2.25,3.25,0.00,0.00,0.14
0,24.10,10.13,4.00,6.14,19.25,0.00,0.00,3.51,24.01,0.00,0.00,4.70,15.16,0.00,13.70,2.54,0.00,0.00,0.00,0.00,15.69,0.00,0.00,3.71,24.28,6.25,16.39,3.70,3.38,0.00,0.00,0.15
0,27.02,16.46,8.00,7.92,19.43,0.00,0.00,3.51,25.12,0.00,0.00,4.87,16.37,0.00,16.44,2.81,0.00,0.00,0.00,0.00,16.58,0.00,0.00,4.07,27.90,12.50,21.31,5.54,4.18,0.00,0.00,0.25
1,29.67,20.25,8.00,9.12,20.05,0.00,0.00,3.71,26.42,2.56,0.00,5.22,16.96,0.00,19.18,3.08,0.00,0.00,0.00,0.00,16.88,0.00,0.00,4.17,29.21,12.50,22.95,6.01,5.22,0.00,0.00,0.65
1,32.03,24.05,12.00,10.52,20.38,0.00,0.00,3.99,29.92,5.13,0.00,8.36,19.41,2.44,23.29,4.56,0.00,0.00,0.00,0.00,17.24,1.41,0.00,4.21,30.70,12.50,24.59,6.33,8.27,2.56,0.00,3.40
1,34.29,26.58,14.00,13.08,22.50,4.44,4.65,5.64,33.08,7.69,0.00,9.70,19.54,2.44,24.66,4.59,0.00,0.00,0.00,0.00,18.99,4.23,0.00,5.24,35.17,21.87,32.79,9.19,10.88,5.13,0.00,5.65
1,36.49,29.11,14.00,14.52,24.01,4.44,6.98,6.24,35.85,10.26,0.00,15.69,20.47,2.44,26.03,4.85,0.00,0.00,0.00,0.00,20.78,7.04,0.00,6.07,36.29,21.87,36.07,9.52,12.06,5.13,0.00,5.94
1,39.73,32.91,16.00,17.50,29.10,11.11,11.63,12.46,38.63,12.82,0.00,17.71,21.95,2.44,28.77,5.79,0.00,0.00,0.00,0.00,21.84,7.04,0.00,6.50,39.47,28.12,42.62,10.83,15.98,10.26,0.00,10.16
1,42.22,36.71,18.00,19.49,30.79,11.11,11.63,13.49,39.72,12.82,0.00,18.96,23.06,2.44,30.14,6.45,0.00,0.00,0.00,0.00,22.87,8.45,0.00,7.06,42.08,31.25,52.46,11.45,17.48,10.26,0.00,11.27
1,44.13,37.97,20.00,20.76,31.48,11.11,11.63,13.74,40.16,12.82,0.00,19.00,24.46,2.44,32.88,7.01,0.00,0.00,0.00,0.00,25.77,11.27,3.92,10.11,43.53,34.38,54.10,12.14,18.30,10.26,0.00,11.61
1,44.18,36.71,22.00,21.12,32.57,13.33,13.95,14.45,40.74,12.82,0.00,19.14,28.02,4.88,36.99,8.93,0.00,0.00,0.00,0.00,27.49,15.49,3.92,11.46,46.90,34.38,62.30,12.88,18.78,10.26,0.00,11.68
1,46.37,39.24,24.00,22.61,35.44,17.78,16.28,16.52,41.03,12.82,0.00,19.39,29.67,4.88,45.21,9.38,0.00,0.00,0.00,0.00,27.74,15.49,3.92,11.44,46.37,34.38,62.30,12.82,20.35,12.82,0.00,12.27
1,46.87,37.97,24.00,23.06,38.11,22.22,18.60,17.84,42.25,12.82,0.00,19.61,31.13,4.88,47.95,10.01,0.00,0.00,0.00,0.00,28.93,18.31,3.92,12.11,47.51,34.38,63.93,13.15,21.22,12.82,0.00,12.72
1,49.31,41.77,24.00,24.90,39.15,22.22,18.60,18.58,43.04,12.82,0.00,19.85,31.88,4.88,47.95,10.18,0.00,0.00,0.00,0.00,29.22,18.31,3.92,12.48,48.71,34.38,67.21,13.42,22.12,12.82,0.00,12.89
1,51.12,44.30,26.00,25.87,39.60,22.22,18.60,18.66,43.32,12.82,0.00,20.02,32.27,4.88,50.68,10.16,0.00,0.00,0.00,0.00,29.90,18.31,3.92,12.82,49.58,34.38,65.57,13.65,23.48,12.82,0.00,13.31
1,52.16,45.57,26.00,26.51,40.17,22.22,18.60,18.97,43.88,12.82,0.00,20.39,32.41,4.88,50.68,10.13,0.00,0.00,0.00,0.00,30.43,18.31,3.92,13.14,50.91,34.38,68.85,13.87,24.13,12.82,0.00,13.44
1,52.67,46.84,26.00,26.84,41.85,24.44,20.93,19.57,44.31,12.82,0.00,20.36,33.13,4.88,52.05,10.25,0.00,0.00,0.00,0.00,30.95,21.13,5.88,13.88,51.36,34.38,68.85,14.04,25.27,12.82,0.00,13.71
1,53.19,48.10,26.00,27.16,44.53,26.67,20.93,21.55,44.64,12.82,0.00,20.38,34.26,4.88,56.16,10.77,0.00,0.00,0.00,0.00,30.88,21.13,5.88,13.87,53.78,37.50,72.13,14.92,25.99,12.82,0.00,14.00
1,53.29,48.10,26.00,27.18,46.94,31.11,27.91,23.70,45.18,12.82,0.00,20.58,36.64,4.88,60.27,11.51,0.00,0.00,0.00,0.00,31.24,22.54,5.88,14.19,53.68,37.50,70.49,14.95,27.89,15.38,0.00,14.72
1,52.63,48.10,22.00,27.11,48.23,31.11,27.91,24.09,46.40,15.38,0.00,21.52,37.28,4.88,58.90,12.01,0.00,0.00,0.00,0.00,31.86,22.54,5.88,14.68,55.53,37.50,75.41,15.35,29.60,15.38,0.00,15.57
1,54.26,49.37,26.00,28.13,49.26,31.11,27.91,24.68,46.93,17.95,0.00,21.60,39.87,7.32,65.75,13.05,0.00,0.00,0.00,0.00,31.29,22.54,5.88,14.53,57.23,40.63,80.33,16.07,30.07,15.38,0.00,15.63
1,54.48,49.37,26.00,28.33,50.38,33.33,30.23,25.85,49.53,20.51,0.00,23.38,41.06,9.76,67.12,14.11,0.00,0.00,0.00,0.00,31.40,23.94,5.88,14.84,59.09,40.63,86.89,16.40,34.18,20.51,0.00,18.84
1,56.60,53.16,28.00,30.08,49.39,33.33,30.23,25.72,50.56,23.08,0.00,23.82,44.07,12.20,72.60,15.82,0.00,0.00,0.00,0.00,31.94,25.35,5.88,15.18,57.99,34.38,86.89,15.88,38.80,28.21,5.00,22.59
1,56.42,51.90,26.00,29.64,49.61,33.33,30.23,25.84,51.04,23.08,0.00,24.25,44.78,12.20,75.34,16.31,0.00,0.00,0.00,0.00,32.02,25.35,5.88,14.99,55.69,28.12,85.25,14.33,40.86,30.77,5.00,24.29
1,55.37,50.63,28.00,29.06,51.79,33.33,32.56,27.34,49.37,20.51,0.00,23.45,44.37,12.20,73.97,16.37,0.00,0.00,0.00,0.00,33.17,28.17,5.88,15.95,55.35,28.12,85.25,14.13,40.82,30.77,5.00,24.38
1,55.69,50.63,28.00,29.62,52.59,33.33,32.56,27.37,45.98,17.95,0.00,20.58,42.64,9.76,73.97,15.08,0.00,0.00,0.00,0.00,33.68,28.17,5.88,16.20,56.02,28.12,86.89,14.27,41.12,30.77,5.00,24.66
1,54.52,49.37,26.00,28.22,52.76,31.11,30.23,26.75,44.82,15.38,0.00,19.60,43.21,9.76,72.60,15.37,0.00,0.00,0.00,0.00,33.79,26.76,5.88,17.41,53.01,18.75,85.25,11.66,39.50,28.21,5.00,21.94
1,53.62,48.10,28.00,27.26,52.53,31.11,27.91,27.49,40.33,12.82,0.00,13.39,42.90,9.76,73.97,15.31,0.00,0.00,0.00,0.00,34.58,28.17,7.84,19.00,53.86,18.75,85.25,11.64,40.19,28.21,5.00,22.25
1,54.56,50.63,30.00,26.06,49.68,26.67,23.26,24.55,40.53,12.82,0.00,13.31,42.48,9.76,75.34,14.84,0.00,0.00,0.00,0.00,33.51,28.17,7.84,18.42,51.71,12.50,85.25,10.88,39.88,25.64,5.00,21.37
1,52.92,49.37,30.00,24.98,48.46,24.44,23.26,21.41,39.42,12.82,0.00,12.01,42.99,9.76,75.34,14.60,0.00,0.00,0.00,0.00,34.44,30.99,9.80,19.32,50.74,9.38,80.33,10.56,39.56,25.64,5.00,20.69
1,53.10,49.37,30.00,25.03,50.27,28.89,27.91,23.13,39.87,12.82,0.00,11.78,42.39,9.76,76.71,14.07,0.00,0.00,0.00,0.00,33.09,26.76,7.84,17.93,51.54,12.50,83.61,10.61,39.69,25.64,5.00,20.60
1,53.67,51.90,26.00,25.49,50.35,26.67,25.58,22.92,40.19,12.82,0.00,11.87,39.89,7.32,75.34,12.54,0.00,0.00,0.00,0.00,31.73,25.35,5.88,15.97,50.60,12.50,80.33,10.66,40.32,25.64,5.00,21.00
1,52.22,49.37,24.00,24.61,49.93,26.67,25.58,22.40,43.03,15.38,0.00,13.23,39.40,9.76,69.86,12.31,0.00,0.00,0.00,0.00,31.08,25.35,5.88,15.51,50.45,12.50,80.33,10.51,42.42,28.21,5.00,22.37
1,53.92,53.16,26.00,26.32,47.43,20.00,23.26,20.91,43.62,17.95,0.00,14.18,39.64,12.20,68.49,13.04,0.00,0.00,0.00,0.00,30.93,22.54,5.88,15.22,50.10,12.50,80.33,10.56,43.19,28.21,5.00,22.91
1,53.11,53.16,26.00,25.55,47.91,22.22,25.58,20.79,44.04,17.95,0.00,14.29,39.89,12.20,71.23,13.27,0.00,0.00,0.00,0.00,32.09,25.35,7.84,16.23,51.44,15.63,81.97,11.15,45.05,28.21,5.00,23.77
1,53.88,50.63,28.00,26.22,48.29,22.22,27.91,21.32,46.66,25.64,0.00,15.49,40.84,12.20,71.23,13.64,0.00,0.00,0.00,0.00,33.62,29.58,7.84,18.29,51.49,15.63,80.33,11.29,47.36,30.77,5.00,25.26
1,55.58,53.16,32.00,27.19,47.92,22.22,27.91,21.16,47.21,25.64,0.00,15.25,41.55,12.20,73.97,13.83,0.00,0.00,0.00,0.00,34.50,32.39,7.84,18.74,51.38,15.63,81.97,11.12,47.31,30.77,5.00,25.29
1,59.24,59.49,36.00,30.13,46.98,20.00,25.58,20.97,46.44,25.64,0.00,15.14,42.48,12.20,79.45,14.02,0.00,0.00,0.00,0.00,36.80,35.21,7.84,21.06,52.87,15.63,83.61,11.55,48.23,30.77,5.00,26.01
1,58.64,56.96,36.00,29.89,45.57,20.00,25.58,19.38,46.42,25.64,0.00,15.21,43.05,12.20,80.82,14.38,0.00,0.00,0.00,0.00,37.83,35.21,7.84,21.22,52.79,15.63,83.61,11.20,47.81,30.77,5.00,26.07
1,60.62,60.76,36.00,31.27,44.86,20.00,23.26,19.34,47.93,28.21,0.00,16.22,41.35,12.20,79.45,13.92,0.00,0.00,0.00,0.00,37.70,33.80,7.84,21.07,52.82,15.63,85.25,11.25,49.41,30.77,5.00,27.80
1,60.26,60.76,36.00,31.31,43.73,15.56,20.93,17.87,46.76,25.64,0.00,15.62,41.72,12.20,82.19,13.85,0.00,0.00,0.00,0.00,37.09,33.80,7.84,20.65,51.96,15.63,81.97,11.17,49.09,30.77,5.00,27.17
1,59.09,59.49,32.00,30.38,42.73,15.56,20.93,17.19,48.35,25.64,0.00,16.27,40.81,12.20,76.71,13.79,0.00,0.00,0.00,0.00,36.28,33.80,7.84,20.39,50.78,12.50,78.69,10.54,50.88,33.33,5.00,28.10
1,61.65,62.03,36.00,32.02,42.31,13.33,20.93,17.01,46.92,20.51,0.00,15.62,39.33,7.32,76.71,12.59,0.00,0.00,0.00,0.00,36.79,33.80,7.84,20.77,50.74,12.50,75.41,10.67,49.17,28.21,5.00,27.37
1,61.78,63.29,38.00,32.48,43.35,13.33,20.93,16.93,46.17,17.95,0.00,14.95,37.31,4.88,72.60,11.46,0.00,0.00,0.00,0.00,36.52,32.39,7.84,20.46,49.43,12.50,70.49,10.35,47.17,23.08,0.00,25.58
1,62.21,63.29,38.00,32.51,43.81,13.33,20.93,17.56,45.99,17.95,0.00,14.24,36.27,4.88,68.49,10.19,0.00,0.00,0.00,0.00,36.83,33.80,7.84,20.54,47.55,12.50,67.21,9.69,46.13,20.51,0.00,23.36
1,62.58,63.29,36.00,32.80,44.36,15.56,25.58,17.92,45.90,20.51,0.00,14.65,36.52,4.88,69.86,10.31,0.00,0.00,0.00,0.00,38.17,38.03,7.84,21.59,48.43,15.63,68.85,10.28,45.05,20.51,0.00,22.96
1,63.20,64.56,36.00,33.03,44.05,15.56,27.91,17.78,47.93,20.51,0.00,15.06,36.93,4.88,71.23,10.37,0.00,0.00,0.00,0.00,38.03,38.03,7.84,21.49,46.13,15.63,65.57,9.78,45.56,17.95,0.00,22.47
1,62.26,63.29,34.00,32.89,44.24,15.56,25.58,17.91,47.17,20.51,0.00,14.63,35.89,4.88,69.86,9.97,0.00,0.00,0.00,0.00,36.76,36.62,7.84,19.54,46.65,15.63,68.85,9.80,45.07,17.95,0.00,21.57
1,61.92,64.56,36.00,32.11,43.96,13.33,30.23,17.66,48.58,20.51,0.00,15.39,36.07,4.88,69.86,9.99,0.00,0.00,0.00,0.00,35.63,36.62,5.88,17.90,45.99,15.63,67.21,9.57,45.88,20.51,0.00,22.34
1,61.26,63.29,34.00,31.48,44.14,13.33,30.23,17.17,47.74,20.51,0.00,15.40,35.75,4.88,68.49,9.95,0.00,0.00,0.00,0.00,35.60,33.80,5.88,17.74,44.85,15.63,65.57,9.28,44.80,20.51,0.00,21.88
1,61.00,63.29,30.00,31.55,45.02,17.78,32.56,17.97,46.63,17.95,0.00,14.25,35.73,4.88,68.49,10.04,0.00,0.00,0.00,0.00,35.49,33.80,5.88,17.77,43.68,15.63,60.66,8.99,41.91,17.95,0.00,18.53
1,61.68,62.03,32.00,31.73,43.88,15.56,30.23,16.72,46.99,17.95,0.00,14.50,35.61,4.88,67.12,10.09,0.00,0.00,0.00,0.00,34.32,30.99,3.92,16.70,44.15,15.63,62.30,9.06,43.76,17.95,0.00,19.26
1,60.65,60.76,34.00,31.76,42.40,15.56,30.23,15.86,48.98,20.51,0.00,15.52,35.72,4.88,65.75,10.46,0.00,0.00,0.00,0.00,33.77,29.58,3.92,16.67,42.91,12.50,60.66,8.62,45.37,20.51,0.00,21.11
1,61.57,60.76,34.00,30.99,42.79,15.56,30.23,15.92,47.20,17.95,0.00,14.54,35.84,4.88,67.12,10.48,0.00,0.00,0.00,0.00,34.46,29.58,3.92,16.87,42.90,12.50,62.30,8.54,44.92,20.51,0.00,20.80
1,59.44,59.49,32.00,28.76,43.56,13.33,32.56,16.25,46.18,15.38,0.00,13.40,33.96,0.00,67.12,9.03,0.00,0.00,0.00,0.00,35.35,30.99,3.92,17.95,43.42,12.50,62.30,8.60,43.34,17.95,0.00,19.52
1,60.59,62.03,34.00,29.27,45.75,17.78,39.53,17.53,47.81,17.95,0.00,13.97,34.90,0.00,69.86,9.32,0.00,0.00,0.00,0.00,36.34,35.21,3.92,18.67,44.32,12.50,67.21,8.91,45.05,23.08,0.00,21.20
1,59.73,62.03,34.00,28.51,44.02,17.78,37.21,16.88,45.48,12.82,0.00,13.73,33.46,0.00,67.12,8.78,0.00,0.00,0.00,0.00,35.23,33.80,1.96,16.99,41.97,9.38,63.93,7.97,43.66,23.08,0.00,21.54
1,57.20,58.23,30.00,27.31,46.10,20.00,41.86,17.68,43.35,10.26,0.00,12.54,32.56,0.00,63.01,8.52,0.00,0.00,0.00,0.00,35.34,35.21,1.96,16.84,44.09,12.50,67.21,8.90,44.21,23.08,0.00,21.52
1,54.42,55.70,26.00,24.52,46.76,20.00,41.86,18.08,45.10,10.26,0.00,12.99,32.73,0.00,61.64,8.74,0.00,0.00,0.00,0.00,32.70,29.58,0.00,14.76,43.34,12.50,70.49,8.64,44.42,28.21,0.00,21.55
1,53.00,51.90,26.00,23.45,46.54,20.00,41.86,17.95,44.74,10.26,0.00,12.94,32.20,0.00,60.27,8.56,0.00,0.00,0.00,0.00,31.21,28.17,0.00,13.36,43.08,12.50,68.85,8.49,44.74,28.21,0.00,21.46
1,54.45,53.16,28.00,24.88,45.32,17.78,39.53,17.16,45.67,10.26,0.00,13.49,32.38,0.00,61.64,8.51,0.00,0.00,0.00,0.00,31.87,30.99,0.00,14.42,41.07,9.38,63.93,7.83,44.98,28.21,0.00,21.52
1,53.34,50.63,28.00,23.40,44.69,17.78,39.53,16.85,46.98,15.38,0.00,14.58,31.70,0.00,58.90,7.99,0.00,0.00,0.00,0.00,32.14,30.99,0.00,14.31,39.79,9.38,62.30,7.54,46.85,33.33,0.00,23.52
1,54.08,53.16,28.00,23.60,44.73,17.78,39.53,16.74,47.69,15.38,0.00,14.78,31.38,0.00,58.90,7.89,0.00,0.00,0.00,0.00,32.97,32.39,0.00,14.84,40.38,9.38,63.93,7.91,47.24,33.33,0.00,23.83
1,53.36,53.16,24.00,23.15,45.02,20.00,39.53,16.98,45.97,15.38,0.00,13.82,30.97,0.00,60.27,7.48,0.00,0.00,0.00,0.00,33.02,32.39,0.00,14.93,40.07,12.50,63.93,7.68,46.25,30.77,0.00,22.72
1,50.83,48.10,20.00,20.77,45.67,20.00,39.53,17.95,46.15,15.38,0.00,14.23,31.79,0.00,63.01,8.03,0.00,0.00,0.00,0.00,33.95,36.62,0.00,15.40,40.27,12.50,63.93,7.69,45.57,30.77,0.00,22.64
1,50.50,46.84,20.00,19.95,46.55,20.00,41.86,18.11,45.77,15.38,0.00,14.08,32.15,0.00,63.01,8.12,0.00,0.00,0.00,0.00,33.86,36.62,0.00,15.36,41.38,12.50,65.57,8.01,46.23,30.77,0.00,22.76
1,51.23,46.84,20.00,20.61,47.29,24.44,37.21,18.86,45.88,15.38,0.00,14.12,31.07,0.00,60.27,7.82,0.00,0.00,0.00,0.00,32.66,32.39,0.00,14.50,40.91,12.50,65.57,7.56,46.41,30.77,0.00,22.33
1,50.97,45.57,20.00,20.57,45.52,22.22,32.56,17.98,45.29,15.38,0.00,14.30,30.62,0.00,60.27,7.81,0.00,0.00,0.00,0.00,32.71,29.58,0.00,14.41,41.50,12.50,65.57,7.72,46.97,30.77,0.00,23.09
1,53.06,49.37,26.00,21.93,44.85,22.22,32.56,17.87,46.07,15.38,0.00,14.49,31.83,0.00,65.75,8.21,0.00,0.00,0.00,0.00,33.19,29.58,0.00,14.63,41.65,12.50,62.30,7.76,47.69,30.77,0.00,23.90
1,53.02,49.37,24.00,21.90,43.57,22.22,27.91,16.83,44.85,15.38,0.00,13.87,31.47,0.00,61.64,8.21,0.00,0.00,0.00,0.00,33.34,29.58,0.00,14.77,41.58,12.50,59.02,7.84,46.39,28.21,0.00,23.14
1,52.77,48.10,22.00,21.67,43.84,22.22,30.23,16.88,44.67,15.38,0.00,13.76,32.27,0.00,65.75,8.56,0.00,0.00,0.00,0.00,32.62,26.76,0.00,14.58,40.95,12.50,55.74,7.87,47.45,28.21,0.00,24.27
1,52.29,48.10,22.00,20.97,42.33,20.00,27.91,16.39,44.33,15.38,0.00,13.78,32.03,0.00,63.01,8.48,0.00,0.00,0.00,0.00,34.19,29.58,0.00,15.46,42.09,12.50,62.30,8.15,47.81,28.21,0.00,24.46
1,52.87,49.37,24.00,22.03,41.29,15.56,25.58,15.54,43.35,15.38,0.00,13.35,31.83,0.00,65.75,8.17,0.00,0.00,0.00,0.00,34.52,30.99,0.00,15.76,40.82,12.50,59.02,7.87,47.83,28.21,0.00,24.99
1,52.73,49.37,22.00,21.99,42.02,15.56,25.58,16.10,42.56,12.82,0.00,13.02,31.46,0.00,65.75,8.15,0.00,0.00,0.00,0.00,34.36,30.99,0.00,15.80,40.51,9.38,57.38,7.58,47.36,28.21,0.00,23.94
1,51.69,48.10,22.00,21.49,42.52,20.00,27.91,16.67,43.82,15.38,0.00,14.01,32.35,0.00,63.01,8.51,0.00,0.00,0.00,0.00,34.08,32.39,0.00,15.80,41.80,9.38,59.02,7.89,48.79,33.33,0.00,25.68
1,52.37,48.10,22.00,21.93,40.86,20.00,23.26,16.12,44.92,17.95,0.00,14.40,32.81,0.00,63.01,9.26,0.00,0.00,0.00,0.00,33.80,32.39,0.00,15.45,41.52,12.50,57.38,7.95,49.65,33.33,0.00,26.52
1,51.86,45.57,20.00,21.92,38.55,17.78,16.28,15.23,44.09,17.95,0.00,14.56,32.72,0.00,60.27,9.39,0.00,0.00,0.00,0.00,31.98,28.17,0.00,14.08,42.06,12.50,59.02,8.18,48.59,30.77,0.00,26.41
1,49.18,41.77,16.00,20.09,38.97,15.56,13.95,15.07,44.16,17.95,0.00,14.62,31.67,0.00,58.90,8.79,0.00,0.00,0.00,0.00,31.08,26.76,0.00,13.18,43.87,12.50,60.66,8.71,47.33,25.64,0.00,25.42
1,50.42,44.30,18.00,21.62,38.99,15.56,13.95,15.50,44.21,17.95,0.00,14.52,31.43,0.00,58.90,8.62,0.00,0.00,0.00,0.00,31.15,23.94,0.00,13.65,42.47,9.38,55.74,8.61,47.40,28.21,0.00,25.48
1,50.77,45.57,18.00,21.84,38.33,15.56,11.63,15.34,43.69,17.95,0.00,15.04,30.23,0.00,57.53,8.22,0.00,0.00,0.00,0.00,30.77,22.54,0.00,13.43,41.40,9.38,50.82,7.95,48.38,28.21,0.00,27.54
1,52.45,49.37,20.00,23.45,39.82,17.78,13.95,16.24,44.35,20.51,0.00,15.47,29.46,0.00,56.16,7.98,0.00,0.00,0.00,0.00,31.15,23.94,0.00,13.77,41.68,9.38,54.10,7.97,47.90,25.64,0.00,26.90
1,53.13,50.63,22.00,24.19,40.42,17.78,13.95,16.68,43.26,17.95,0.00,14.66,29.38,0.00,54.79,7.94,0.00,0.00,0.00,0.00,30.64,22.54,0.00,13.02,43.33,9.38,59.02,8.26,46.07,23.08,0.00,25.36
1,51.59,48.10,20.00,22.96,40.98,17.78,13.95,16.82,42.05,12.82,0.00,12.82,29.57,0.00,56.16,8.09,0.00,0.00,0.00,0.00,30.49,22.54,0.00,12.81,44.52,9.38,60.66,8.74,44.28,17.95,0.00,23.12
1,50.62,46.84,20.00,22.58,42.99,17.78,16.28,18.47,42.41,12.82,0.00,13.15,30.70,0.00,60.27,8.35,0.00,0.00,0.00,0.00,30.39,21.13,0.00,12.90,45.22,9.38,60.66,9.02,43.83,17.95,0.00,22.87
1,49.47,45.57,20.00,22.53,42.70,17.78,16.28,18.47,43.27,12.82,0.00,13.51,30.68,0.00,57.53,8.51,0.00,0.00,0.00,0.00,31.74,23.94,1.96,14.26,44.44,6.25,59.02,8.82,44.90,17.95,0.00,23.59
1,49.55,48.10,20.00,22.79,41.94,17.78,16.28,17.48,42.46,12.82,0.00,12.86,30.08,0.00,56.16,8.07,0.00,0.00,0.00,0.00,30.07,19.72,1.96,13.37,46.27,6.25,63.93,9.16,44.86,20.51,0.00,23.44
1,49.98,49.37,24.00,24.03,40.57,17.78,13.95,16.47,42.77,12.82,0.00,12.86,30.00,0.00,57.53,8.03,0.00,0.00,0.00,0.00,29.28,18.31,1.96,12.63,45.11,6.25,62.30,8.89,43.73,20.51,0.00,22.92
1,49.61,48.10,22.00,24.06,40.60,17.78,16.28,16.15,43.53,12.82,0.00,13.22,30.79,0.00,58.90,8.28,0.00,0.00,0.00,0.00,29.17,19.72,1.96,12.44,44.58,3.12,62.30,8.58,44.26,20.51,0.00,23.01
1,49.02,48.10,24.00,22.94,40.64,17.78,18.60,16.32,45.71,15.38,0.00,13.73,31.08,0.00,58.90,8.20,0.00,0.00,0.00,0.00,29.87,22.54,1.96,13.02,45.32,3.12,65.57,8.87,44.85,20.51,0.00,24.68
1,46.71,41.77,18.00,21.27,41.06,17.78,18.60,16.34,45.80,15.38,0.00,14.08,30.70,0.00,57.53,8.08,0.00,0.00,0.00,0.00,30.53,26.76,1.96,13.37,46.79,6.25,67.21,9.48,44.64,20.51,0.00,24.10
1,47.11,41.77,18.00,21.32,43.21,22.22,25.58,17.60,45.65,15.38,0.00,14.29,31.12,0.00,58.90,8.12,0.00,0.00,0.00,0.00,29.98,26.76,1.96,13.30,46.67,6.25,68.85,9.43,44.28,20.51,0.00,24.45
1,50.02,43.04,24.00,25.67,43.54,22.22,23.26,17.68,46.29,15.38,0.00,14.77,31.04,0.00,60.27,7.95,0.00,0.00,0.00,0.00,30.58,28.17,1.96,13.68,46.89,6.25,70.49,9.40,44.43,23.08,0.00,24.51
1,51.00,44.30,26.00,27.12,43.81,22.22,23.26,17.93,47.67,15.38,0.00,15.02,30.98,0.00,60.27,7.87,0.00,0.00,0.00,0.00,30.68,28.17,1.96,13.48,46.52,6.25,67.21,9.38,45.72,25.64,0.00,25.51
1,50.36,45.57,24.00,26.29,44.51,22.22,23.26,18.07,47.92,15.38,0.00,15.06,30.34,0.00,57.53,7.72,0.00,0.00,0.00,0.00,30.33,29.58,3.92,14.33,47.89,9.38,70.49,10.03,45.37,25.64,0.00,24.98
1,49.16,44.30,22.00,24.94,44.07,22.22,23.26,18.09,48.31,15.38,0.00,15.42,31.22,0.00,58.90,8.08,0.00,0.00,0.00,0.00,30.37,28.17,3.92,14.06,48.04,9.38,68.85,10.28,45.08,25.64,0.00,24.80
1,53.36,48.10,26.00,29.71,44.37,20.00,20.93,18.37,47.50,15.38,0.00,14.86,30.74,0.00,60.27,7.56,0.00,0.00,0.00,0.00,32.04,29.58,3.92,15.67,48.86,12.50,75.41,10.48,43.49,23.08,0.00,23.32
1,54.97,51.90,28.00,31.35,45.40,22.22,23.26,19.08,47.05,12.82,0.00,14.35,29.00,0.00,57.53,6.53,0.00,0.00,0.00,0.00,33.47,32.39,3.92,16.26,47.06,12.50,70.49,10.35,41.64,17.95,0.00,21.16
1,54.35,50.63,28.00,31.03,46.84,22.22,23.26,20.19,45.84,10.26,0.00,13.60,28.99,0.00,56.16,6.51,0.00,0.00,0.00,0.00,34.91,36.62,3.92,17.70,46.79,12.50,67.21,10.51,41.98,20.51,0.00,21.47
1,56.51,55.70,30.00,32.61,48.27,22.22,25.58,21.17,45.74,7.69,0.00,13.24,29.21,0.00,57.53,6.50,0.00,0.00,0.00,0.00,35.24,35.21,3.92,18.02,45.19,12.50,63.93,10.02,41.09,20.51,0.00,20.47
1,57.38,56.96,30.00,33.49,46.91,17.78,23.26,20.09,46.80,7.69,0.00,13.44,29.52,0.00,57.53,6.59,0.00,0.00,0.00,0.00,34.69,32.39,3.92,17.63,44.19,12.50,62.30,9.52,42.86,23.08,0.00,20.71
1,59.43,59.49,32.00,34.37,46.31,17.78,23.26,19.69,47.21,10.26,0.00,13.96,30.25,0.00,60.27,6.87,0.00,0.00,0.00,0.00,34.62,32.39,3.92,17.28,45.43,12.50,70.49,9.57,41.56,20.51,0.00,20.13
1,57.95,55.70,30.00,34.12,46.65,17.78,23.26,19.87,47.46,7.69,0.00,13.69,29.75,0.00,57.53,6.74,0.00,0.00,0.00,0.00,36.36,35.21,3.92,18.10,45.12,12.50,68.85,9.83,42.56,20.51,0.00,20.35
1,57.11,55.70,28.00,33.18,45.36,15.56,20.93,18.97,48.82,12.82,0.00,14.40,30.89,0.00,60.27,7.00,0.00,0.00,0.00,0.00,35.27,33.80,3.92,17.54,44.09,12.50,65.57,9.54,44.49,23.08,0.00,22.01
1,57.78,58.23,30.00,33.64,45.30,15.56,20.93,19.22,48.43,12.82,0.00,14.36,30.57,0.00,58.90,7.03,0.00,0.00,0.00,0.00,36.34,35.21,3.92,18.75,43.75,12.50,67.21,9.49,44.32,23.08,0.00,22.35
1,58.64,59.49,30.00,34.03,45.13,15.56,18.60,18.68,47.04,12.82,0.00,13.94,30.38,0.00,56.16,7.34,0.00,0.00,0.00,0.00,36.64,35.21,3.92,18.58,43.12,12.50,67.21,9.27,44.45,23.08,0.00,22.39
1,57.99,58.23,30.00,33.64,45.29,17.78,18.60,19.51,45.60,12.82,0.00,13.28,29.47,0.00,52.05,6.99,0.00,0.00,0.00,0.00,36.80,36.62,1.96,18.04,43.59,12.50,72.13,9.11,43.70,23.08,0.00,21.87
1,58.85,58.23,30.00,33.96,46.35,17.78,18.60,19.99,46.80,12.82,0.00,13.77,29.29,0.00,50.68,7.05,0.00,0.00,0.00,0.00,36.79,36.62,1.96,18.00,42.63,12.50,67.21,9.08,43.85,23.08,0.00,22.12
1,56.90,55.70,26.00,32.60,46.73,17.78,18.60,20.30,48.15,17.95,0.00,15.00,29.99,0.00,50.68,7.40,0.00,0.00,0.00,0.00,36.97,36.62,1.96,18.19,44.50,12.50,72.13,9.74,45.59,25.64,0.00,22.81
1,57.63,55.70,26.00,33.66,45.26,17.78,18.60,19.63,48.13,17.95,0.00,14.84,29.74,0.00,50.68,7.38,0.00,0.00,0.00,0.00,38.62,39.44,1.96,19.21,44.80,12.50,70.49,10.02,45.72,28.21,0.00,23.92
1,56.97,54.43,22.00,33.16,44.17,13.33,13.95,18.86,45.51,12.82,0.00,13.89,29.36,0.00,50.68,7.46,0.00,0.00,0.00,0.00,37.74,36.62,1.96,18.79,44.94,12.50,70.49,10.00,43.84,25.64,0.00,21.78
1,57.35,58.23,24.00,33.39,44.05,13.33,16.28,19.01,44.01,12.82,0.00,13.35,30.07,0.00,52.05,7.76,0.00,0.00,0.00,0.00,37.45,35.21,1.96,19.12,43.95,9.38,70.49,9.94,42.74,25.64,0.00,21.07
1,58.25,58.23,24.00,33.81,42.62,11.11,11.63,18.64,43.89,12.82,0.00,13.11,30.59,0.00,54.79,7.89,0.00,0.00,0.00,0.00,38.41,35.21,1.96,19.58,44.18,9.38,72.13,9.94,42.75,25.64,0.00,20.66
1,57.68,62.03,26.00,32.13,41.95,8.89,9.30,18.10,44.45,15.38,0.00,13.43,32.41,2.44,53.42,8.94,0.00,0.00,0.00,0.00,38.98,36.62,1.96,20.35,44.50,9.38,72.13,9.90,43.12,23.08,0.00,20.84
1,58.38,64.56,28.00,31.18,41.09,8.89,9.30,17.59,43.94,15.38,0.00,13.52,33.48,2.44,57.53,9.50,0.00,0.00,0.00,0.00,38.69,36.62,1.96,20.52,45.73,12.50,75.41,10.16,41.28,20.51,0.00,19.34
1,59.64,63.29,28.00,32.00,40.51,8.89,9.30,17.43,43.62,15.38,0.00,13.36,33.83,2.44,56.16,9.92,0.00,0.00,0.00,0.00,39.71,35.21,1.96,21.32,45.13,9.38,72.13,9.77,42.87,23.08,0.00,20.81
1,60.61,64.56,28.00,32.75,38.88,8.89,9.30,16.72,43.56,15.38,0.00,13.45,33.64,2.44,56.16,9.80,0.00,0.00,0.00,0.00,40.51,36.62,1.96,21.54,45.84,12.50,73.77,10.33,43.81,25.64,0.00,21.44
1,58.52,64.56,26.00,29.37,38.19,8.89,9.30,16.08,44.50,17.95,0.00,14.26,32.83,2.44,56.16,9.52,0.00,0.00,0.00,0.00,39.75,35.21,1.96,21.00,44.17,9.38,67.21,9.93,44.31,28.21,0.00,22.47
1,58.01,63.29,28.00,29.21,36.65,4.44,6.98,14.95,44.73,17.95,0.00,14.32,33.33,2.44,58.90,9.65,0.00,0.00,0.00,0.00,39.49,35.21,1.96,20.51,45.84,9.38,70.49,10.24,44.96,30.77,0.00,22.55
1,57.23,62.03,28.00,28.17,35.03,4.44,6.98,13.21,43.44,17.95,0.00,14.07,33.17,2.44,58.90,9.44,0.00,0.00,0.00,0.00,39.24,32.39,3.92,19.91,44.56,6.25,68.85,9.57,43.87,25.64,0.00,20.87
1,58.00,63.29,26.00,28.06,33.60,4.44,4.65,11.92,43.77,17.95,0.00,13.91,33.87,2.44,65.75,9.57,0.00,0.00,0.00,0.00,39.42,33.80,5.88,20.21,44.38,6.25,68.85,9.40,44.46,25.64,0.00,20.73
1,57.02,62.03,24.00,28.10,34.70,8.89,6.98,13.74,43.97,17.95,0.00,13.74,34.41,2.44,65.75,9.67,0.00,0.00,0.00,0.00,40.18,36.62,5.88,20.82,45.96,6.25,73.77,9.81,44.52,25.64,0.00,21.29
1,55.53,59.49,22.00,26.51,35.31,8.89,9.30,13.94,42.15,15.38,0.00,12.72,33.54,2.44,63.01,9.79,0.00,0.00,0.00,0.00,39.21,36.62,5.88,20.57,45.27,6.25,68.85,9.73,42.63,20.51,0.00,19.57
1,55.21,58.23,24.00,26.29,36.00,8.89,11.63,14.23,41.28,15.38,0.00,12.39,33.75,2.44,61.64,9.87,0.00,0.00,0.00,0.00,39.29,35.21,5.88,20.69,47.31,9.38,73.77,10.81,42.25,20.51,0.00,19.54
1,55.76,59.49,26.00,26.38,37.11,8.89,16.28,14.37,40.46,12.82,0.00,12.19,33.21,2.44,60.27,9.87,0.00,0.00,0.00,0.00,39.57,35.21,5.88,20.31,49.24,9.38,80.33,11.01,41.89,17.95,0.00,19.65
1,54.98,58.23,24.00,25.67,36.09,8.89,16.28,13.78,40.60,12.82,0.00,12.49,32.50,2.44,60.27,9.65,0.00,0.00,0.00,0.00,39.40,35.21,5.88,19.87,48.70,9.38,77.05,11.03,42.59,20.51,0.00,19.41
1,55.69,60.76,24.00,25.61,36.58,11.11,20.93,14.38,41.67,12.82,0.00,13.49,31.71,2.44,58.90,9.25,0.00,0.00,0.00,0.00,40.02,36.62,5.88,20.01,48.51,9.38,75.41,11.00,43.86,23.08,0.00,20.86
1,57.04,62.03,26.00,26.88,34.00,6.67,18.60,12.05,42.24,12.82,0.00,13.66,31.36,2.44,58.90,9.03,0.00,0.00,0.00,0.00,38.50,30.99,5.88,19.28,46.52,9.38,68.85,10.57,42.99,23.08,0.00,20.09
1,58.73,64.56,30.00,28.14,34.04,6.67,18.60,11.96,42.62,12.82,0.00,13.68,32.49,2.44,64.38,9.20,0.00,0.00,0.00,0.00,39.10,33.80,5.88,19.70,46.74,9.38,72.13,10.56,44.70,28.21,0.00,21.36
1,59.28,67.09,30.00,28.75,33.31,6.67,18.60,11.74,40.69,7.69,0.00,12.52,32.55,2.44,65.75,9.28,0.00,0.00,0.00,0.00,40.02,35.21,5.88,20.72,46.89,9.38,72.13,10.48,44.39,25.64,0.00,20.73
1,58.07,67.09,30.00,27.41,34.40,8.89,18.60,12.54,39.70,7.69,0.00,12.06,31.25,2.44,63.01,8.90,0.00,0.00,0.00,0.00,40.42,38.03,5.88,20.79,47.25,12.50,73.77,10.36,42.19,20.51,0.00,18.86
1,58.72,69.62,30.00,27.66,35.03,8.89,20.93,12.77,39.57,7.69,0.00,12.13,31.41,2.44,67.12,8.84,0.00,0.00,0.00,0.00,39.99,36.62,5.88,20.44,46.81,12.50,68.85,10.46,42.33,20.51,0.00,18.88
1,57.40,65.82,28.00,26.59,36.11,8.89,20.93,13.71,40.30,7.69,0.00,12.40,29.93,2.44,63.01,8.12,0.00,0.00,0.00,0.00,39.43,33.80,5.88,19.76,46.04,12.50,68.85,9.91,43.55,23.08,0.00,19.18
1,57.08,68.35,28.00,26.29,35.09,8.89,18.60,12.92,41.66,7.69,0.00,13.34,29.50,2.44,61.64,8.05,0.00,0.00,0.00,0.00,38.45,32.39,5.88,18.98,46.29,15.63,65.57,10.22,44.96,25.64,5.00,21.54
1,55.25,67.09,24.00,24.95,35.01,8.89,18.60,12.70,40.80,5.13,0.00,12.96,28.10,0.00,58.90,7.61,0.00,0.00,0.00,0.00,39.35,36.62,5.88,19.99,46.56,15.63,67.21,10.24,44.68,25.64,5.00,21.16
1,51.54,60.76,18.00,23.45,34.98,8.89,18.60,12.62,42.02,7.69,0.00,13.33,27.17,0.00,56.16,6.99,0.00,0.00,0.00,0.00,39.01,35.21,5.88,19.07,44.64,12.50,60.66,9.79,44.46,25.64,5.00,21.01
1,49.02,58.23,18.00,21.91,34.78,8.89,18.60,12.63,42.99,7.69,0.00,13.89,25.68,0.00,53.42,6.30,0.00,0.00,0.00,0.00,36.46,32.39,3.92,16.69,44.68,12.50,62.30,9.84,43.27,25.64,5.00,19.49
1,47.55,55.70,18.00,20.28,34.64,8.89,18.60,12.53,43.39,7.69,0.00,13.86,26.07,0.00,53.42,6.53,0.00,0.00,0.00,0.00,36.39,30.99,3.92,16.58,44.09,12.50,63.93,9.47,42.99,25.64,5.00,19.81
1,46.08,54.43,18.00,19.83,34.40,8.89,18.60,12.26,42.29,5.13,0.00,12.99,24.98,0.00,52.05,6.08,0.00,0.00,0.00,0.00,34.60,28.17,3.92,15.60,43.44,9.38,65.57,8.86,42.83,25.64,5.00,19.54
1,44.98,51.90,16.00,18.55,34.90,8.89,18.60,12.38,43.54,5.13,0.00,13.62,25.59,0.00,52.05,6.39,0.00,0.00,0.00,0.00,35.06,28.17,3.92,15.73,43.45,9.38,65.57,8.88,44.11,28.21,5.00,20.55
1,44.53,51.90,16.00,18.32,34.90,8.89,18.60,12.23,42.81,5.13,0.00,13.17,25.27,0.00,52.05,6.37,0.00,0.00,0.00,0.00,34.63,28.17,3.92,15.46,42.20,9.38,63.93,8.47,43.02,25.64,5.00,19.80
1,44.31,51.90,18.00,18.39,35.30,8.89,18.60,12.67,42.05,5.13,0.00,13.23,23.67,0.00,43.84,6.13,0.00,0.00,0.00,0.00,32.39,22.54,0.00,14.03,44.27,15.63,65.57,9.18,42.99,25.64,5.00,20.37
1,43.59,49.37,18.00,16.89,33.93,4.44,16.28,11.05,42.19,5.13,0.00,13.27,24.21,0.00,43.84,6.53,0.00,0.00,0.00,0.00,31.98,21.13,0.00,13.62,43.63,15.63,62.30,9.19,43.57,28.21,5.00,20.45
1,42.69,46.84,18.00,16.48,34.11,4.44,13.95,11.09,43.03,5.13,0.00,13.73,23.36,0.00,43.84,5.83,0.00,0.00,0.00,0.00,32.65,22.54,0.00,13.69,43.14,15.63,59.02,9.03,45.45,28.21,5.00,21.08
1,42.91,46.84,18.00,16.21,34.74,6.67,13.95,11.49,43.59,5.13,0.00,14.37,23.99,0.00,46.58,5.92,0.00,0.00,0.00,0.00,32.35,22.54,0.00,13.70,42.62,18.75,57.38,8.45,44.54,28.21,5.00,20.75
1,44.60,50.63,20.00,17.29,33.47,6.67,9.30,11.17,43.13,5.13,0.00,14.19,25.09,0.00,50.68,6.20,0.00,0.00,0.00,0.00,32.12,22.54,0.00,13.77,40.97,18.75,52.46,8.35,44.90,28.21,5.00,21.05
1,43.76,49.37,18.00,16.78,35.71,8.89,13.95,11.95,43.22,2.56,0.00,13.48,25.24,0.00,50.68,6.07,0.00,0.00,0.00,0.00,32.07,22.54,0.00,13.80,40.89,18.75,54.10,8.12,43.04,25.64,5.00,19.21
1,44.26,49.37,18.00,16.53,35.83,6.67,9.30,12.33,43.19,2.56,0.00,13.62,26.46,0.00,54.79,6.50,0.00,0.00,0.00,0.00,32.53,23.94,0.00,13.96,40.56,18.75,54.10,8.08,43.09,25.64,5.00,18.97
1,44.72,48.10,18.00,17.36,36.26,6.67,9.30,12.01,42.29,2.56,0.00,13.26,27.82,0.00,58.90,6.92,0.00,0.00,0.00,0.00,31.79,22.54,0.00,13.75,41.39,18.75,59.02,7.99,43.07,25.64,5.00,19.04
1,42.66,44.30,14.00,16.56,35.81,6.67,9.30,11.98,41.71,2.56,0.00,13.30,27.09,0.00,54.79,6.84,0.00,0.00,0.00,0.00,32.23,22.54,0.00,14.78,41.68,18.75,60.66,8.16,40.96,20.51,5.00,17.67
1,41.79,40.51,14.00,15.04,35.60,6.67,9.30,11.54,42.47,2.56,0.00,13.39,27.20,0.00,53.42,6.86,0.00,0.00,0.00,0.00,32.14,21.13,0.00,14.45,41.95,18.75,60.66,8.42,40.10,20.51,5.00,17.08
1,41.98,40.51,14.00,14.95,35.72,6.67,11.63,11.75,42.54,2.56,0.00,13.41,27.78,0.00,56.16,7.03,0.00,0.00,0.00,0.00,31.85,19.72,0.00,14.74,41.21,15.63,57.38,8.31,39.69,20.51,5.00,17.16
1,43.25,41.77,14.00,15.48,35.09,6.67,9.30,11.60,42.56,2.56,0.00,13.13,27.90,0.00,50.68,7.20,0.00,0.00,0.00,0.00,31.42,18.31,0.00,14.58,40.71,15.63,59.02,7.89,39.67,20.51,5.00,17.02
1,42.53,40.51,14.00,15.25,33.16,6.67,9.30,10.13,43.10,5.13,0.00,13.43,28.13,0.00,52.05,7.22,0.00,0.00,0.00,0.00,31.14,18.31,0.00,14.39,40.62,15.63,57.38,8.00,40.76,23.08,5.00,19.03
1,42.22,39.24,14.00,15.29,33.81,8.89,11.63,10.51,41.94,5.13,0.00,12.54,28.31,0.00,53.42,7.25,0.00,0.00,0.00,0.00,31.11,16.90,0.00,14.19,39.22,12.50,55.74,7.38,38.57,17.95,0.00,16.98
1,40.88,35.44,12.00,14.42,33.38,8.89,11.63,10.53,43.11,7.69,0.00,12.95,28.58,0.00,54.79,7.00,0.00,0.00,0.00,0.00,29.39,12.68,0.00,13.34,38.62,12.50,54.10,7.30,39.72,23.08,0.00,17.18
1,41.59,35.44,12.00,14.51,34.05,11.11,13.95,11.13,41.19,5.13,0.00,12.00,28.29,0.00,56.16,6.98,0.00,0.00,0.00,0.00,29.86,12.68,0.00,12.66,38.54,12.50,54.10,7.19,39.24,23.08,0.00,18.08
1,42.85,37.97,12.00,15.54,35.23,11.11,13.95,11.56,42.01,7.69,0.00,12.67,29.16,0.00,61.64,7.16,0.00,0.00,0.00,0.00,30.30,15.49,0.00,13.19,38.36,12.50,52.46,7.23,40.99,25.64,0.00,19.88
1,43.11,39.24,12.00,15.73,36.23,11.11,13.95,12.15,41.41,7.69,0.00,12.70,29.22,0.00,61.64,7.20,0.00,0.00,0.00,0.00,31.26,16.90,0.00,14.23,38.12,12.50,49.18,7.28,39.19,20.51,0.00,18.64
1,41.52,36.71,10.00,14.96,36.42,11.11,13.95,12.58,40.44,7.69,0.00,12.21,29.40,0.00,63.01,7.17,0.00,0.00,0.00,0.00,31.57,18.31,0.00,14.45,39.05,12.50,50.82,7.61,37.38,17.95,0.00,17.58
1,42.52,39.24,10.00,15.19,36.19,11.11,13.95,12.64,39.04,7.69,0.00,11.81,29.97,0.00,65.75,7.40,0.00,0.00,0.00,0.00,31.29,18.31,0.00,14.46,38.36,12.50,49.18,7.45,35.93,15.38,0.00,16.74
1,42.28,37.97,8.00,15.20,35.03,11.11,13.95,12.42,39.98,7.69,0.00,12.29,29.88,0.00,67.12,7.10,0.00,0.00,0.00,0.00,30.63,18.31,0.00,14.21,38.53,12.50,47.54,7.46,34.33,15.38,0.00,15.81
1,42.66,37.97,8.00,15.17,34.14,11.11,13.95,11.79,39.31,7.69,0.00,11.84,31.70,2.44,71.23,7.40,0.00,0.00,0.00,0.00,31.06,19.72,0.00,14.48,38.02,9.38,47.54,7.39,32.90,15.38,0.00,15.07
0,44.44,43.04,14.00,17.02,33.95,11.11,13.95,11.61,40.85,7.69,0.00,12.18,31.84,2.44,71.23,7.64,0.00,0.00,0.00,0.00,31.13,21.13,0.00,14.70,37.25,6.25,47.54,6.98,30.46,12.82,0.00,14.02
0,48.15,48.10,18.00,20.30,33.41,11.11,13.95,11.30,40.02,7.69,0.00,11.95,32.98,2.44,75.34,8.22,0.00,0.00,0.00,0.00,31.28,21.13,0.00,15.52,38.96,9.38,50.82,7.56,29.15,12.82,0.00,13.50
0,50.42,51.90,24.00,22.73,31.89,11.11,11.63,10.44,40.88,7.69,0.00,11.96,32.87,2.44,76.71,8.32,0.00,0.00,0.00,0.00,34.21,23.94,3.92,19.76,37.51,6.25,47.54,7.31,28.08,12.82,0.00,12.88
0,51.90,51.90,24.00,24.29,30.92,8.89,11.63,9.59,40.69,7.69,0.00,11.97,32.18,2.44,72.60,7.96,0.00,0.00,0.00,0.00,36.52,26.76,5.88,23.33,36.75,3.12,44.26,6.75,26.35,12.82,0.00,11.95
0,54.27,51.90,28.00,28.41,30.02,8.89,9.30,9.22,41.65,10.26,0.00,12.22,30.76,2.44,69.86,7.56,0.00,0.00,0.00,0.00,37.67,28.17,5.88,24.94,35.54,3.12,40.98,6.48,25.13,12.82,0.00,11.66
0,53.81,49.37,30.00,28.83,29.82,11.11,6.98,9.64,44.92,12.82,0.00,16.14,29.55,2.44,65.75,7.13,0.00,0.00,0.00,0.00,37.12,28.17,5.88,25.18,36.59,3.12,42.62,6.78,24.36,12.82,0.00,11.47
0,53.28,49.37,30.00,27.73,29.12,11.11,6.98,9.41,43.35,12.82,0.00,15.48,28.60,2.44,63.01,6.73,0.00,0.00,0.00,0.00,37.74,29.58,5.88,26.13,35.51,3.12,37.70,6.67,21.45,10.26,0.00,9.91
0,56.14,53.16,36.00,29.15,28.79,11.11,6.98,9.29,43.60,12.82,0.00,15.39,28.38,2.44,61.64,6.70,0.00,0.00,0.00,0.00,37.17,28.17,5.88,24.80,33.46,3.12,31.15,6.25,20.80,10.26,0.00,9.68
0,58.88,58.23,40.00,31.93,29.68,11.11,6.98,9.79,42.59,12.82,0.00,14.97,27.19,2.44,58.90,6.31,0.00,0.00,0.00,0.00,39.31,32.39,7.84,27.36,33.39,3.12,31.15,6.24,19.73,10.26,0.00,9.50
0,57.59,55.70,40.00,31.40,27.87,8.89,4.65,8.78,41.55,12.82,0.00,14.72,26.37,2.44,56.16,5.90,0.00,0.00,0.00,0.00,38.10,29.58,7.84,26.05,31.48,3.12,27.87,5.45,18.47,10.26,0.00,8.77
0,57.15,54.43,40.00,31.16,27.27,8.89,4.65,8.68,41.42,12.82,0.00,14.72,25.85,2.44,56.16,5.60,0.00,0.00,0.00,0.00,38.39,29.58,7.84,26.38,31.32,3.12,26.23,5.54,17.99,10.26,0.00,8.71
0,58.56,58.23,42.00,32.17,26.89,8.89,4.65,8.57,39.79,10.26,0.00,13.95,25.18,2.44,53.42,5.48,0.00,0.00,0.00,0.00,38.26,29.58,7.84,26.09,30.43,3.12,26.23,5.25,15.22,7.69,0.00,6.26
0,57.74,55.70,42.00,31.61,26.31,6.67,2.33,8.21,40.05,10.26,0.00,13.86,24.88,2.44,50.68,5.46,0.00,0.00,0.00,0.00,37.75,29.58,7.84,25.96,30.23,3.12,26.23,5.19,14.66,7.69,0.00,6.16
0,57.62,55.70,42.00,31.68,25.43,6.67,2.33,7.82,38.85,7.69,0.00,13.21,23.78,2.44,46.58,5.17,0.00,0.00,0.00,0.00,37.37,28.17,7.84,25.58,29.72,3.12,24.59,5.12,11.91,5.13,0.00,4.79
0,59.35,60.76,42.00,32.28,24.16,4.44,0.00,7.37,38.49,7.69,0.00,13.02,22.70,2.44,42.47,4.86,0.00,0.00,0.00,0.00,38.48,30.99,7.84,27.01,30.02,3.12,24.59,5.11,9.21,2.56,0.00,2.95
0,58.83,59.49,42.00,31.69,23.72,4.44,0.00,6.58,37.61,5.13,0.00,12.80,22.36,2.44,38.36,4.86,0.00,0.00,0.00,0.00,38.20,29.58,7.84,26.52,29.40,3.12,21.31,4.95,7.29,0.00,0.00,2.13
0,57.92,56.96,42.00,31.07,22.56,4.44,0.00,5.95,36.64,5.13,0.00,11.46,21.45,2.44,35.62,4.42,0.00,0.00,0.00,0.00,39.03,30.99,9.80,27.73,28.46,3.12,21.31,4.59,6.16,0.00,0.00,0.57
0,60.52,60.76,44.00,32.14,22.58,4.44,0.00,5.78,35.93,5.13,0.00,11.39,21.09,2.44,32.88,4.34,0.00,0.00,0.00,0.00,39.89,32.39,9.80,29.09,26.96,3.12,16.39,4.27,5.60,0.00,0.00,0.49
0,61.71,60.76,44.00,33.23,22.03,4.44,0.00,5.36,36.17,5.13,0.00,11.59,20.14,2.44,28.77,4.10,0.00,0.00,0.00,0.00,39.95,32.39,9.80,29.56,26.42,3.12,16.39,3.91,5.39,0.00,0.00,0.46
0,61.61,60.76,44.00,33.29,21.88,4.44,0.00,5.32,34.72,5.13,0.00,11.10,19.94,2.44,26.03,4.21,0.00,0.00,0.00,0.00,40.02,32.39,9.80,29.54,26.02,3.12,16.39,3.80,5.00,0.00,0.00,0.41
0,60.38,59.49,44.00,32.53,21.87,4.44,0.00,5.33,34.10,5.13,0.00,10.75,19.72,2.44,23.29,4.23,0.00,0.00,0.00,0.00,39.98,33.80,9.80,29.74,25.27,3.12,14.75,3.50,4.83,0.00,0.00,0.39
0,57.63,54.43,38.00,30.97,21.46,4.44,0.00,5.30,33.33,5.13,0.00,10.69,17.88,0.00,21.92,3.45,0.00,0.00,0.00,0.00,38.59,29.58,9.80,28.48,24.37,3.12,11.48,3.35,4.72,0.00,0.00,0.38
0,54.70,50.63,36.00,27.71,21.80,4.44,0.00,5.23,32.37,5.13,0.00,10.28,16.43,0.00,16.44,2.82,0.00,0.00,0.00,0.00,38.25,29.58,9.80,28.30,22.43,0.00,8.20,2.83,3.83,0.00,0.00,0.27
0,50.69,44.30,26.00,25.84,21.71,4.44,2.33,5.59,30.49,5.13,0.00,9.60,15.95,0.00,13.70,2.47,0.00,0.00,0.00,0.00,35.38,26.76,5.88,24.20,22.11,0.00,8.20,2.67,3.55,0.00,0.00,0.17
0,47.97,41.77,24.00,22.48,21.85,4.44,2.33,5.68,30.46,5.13,0.00,9.60,15.98,0.00,13.70,2.47,0.00,0.00,0.00,0.00,32.77,22.54,3.92,20.43,21.36,0.00,8.20,2.52,3.35,0.00,0.00,0.15
0,45.35,41.77,20.00,19.71,22.29,4.44,2.33,5.87,28.74,2.56,0.00,9.26,15.88,0.00,13.70,2.49,0.00,0.00,0.00,0.00,31.59,21.13,3.92,18.67,21.06,0.00,8.20,2.45,3.18,0.00,0.00,0.14
0,43.34,39.24,18.00,16.93,20.35,0.00,2.33,4.86,24.14,0.00,0.00,4.62,16.09,0.00,13.70,2.53,0.00,0.00,0.00,0.00,30.01,18.31,3.92,16.74,20.71,0.00,8.20,2.28,3.15,0.00,0.00,0.13
0,45.14,43.04,22.00,18.62,20.15,0.00,2.33,4.19,23.58,0.00,0.00,4.20,15.88,0.00,12.33,2.52,0.00,0.00,0.00,0.00,30.23,19.72,3.92,16.40,20.99,0.00,6.56,2.21,3.04,0.00,0.00,0.12
0,40.38,35.44,14.00,15.53,20.38,0.00,2.33,4.18,22.89,0.00,0.00,4.08,15.43,0.00,12.33,2.31,0.00,0.00,0.00,0.00,29.90,19.72,3.92,16.10,21.03,0.00,6.56,2.24,2.87,0.00,0.00,0.11
0,37.91,32.91,10.00,13.33,19.43,0.00,2.33,3.98,23.49,0.00,0.00,4.28,15.33,0.00,12.33,2.25,0.00,0.00,0.00,0.00,28.10,16.90,1.96,14.22,20.70,0.00,3.28,2.19,2.91,0.00,0.00,0.11
0,37.39,31.65,10.00,13.14,19.00,0.00,2.33,3.46,24.09,0.00,0.00,4.33,15.25,0.00,12.33,2.24,0.00,0.00,0.00,0.00,27.40,15.49,1.96,13.24,19.79,0.00,3.28,1.92,2.80,0.00,0.00,0.10
0,38.43,35.44,10.00,13.53,19.46,0.00,2.33,3.52,24.18,0.00,0.00,4.42,14.77,0.00,10.96,2.14,0.00,0.00,0.00,0.00,27.43,15.49,1.96,13.12,19.75,0.00,3.28,1.88,2.91,0.00,0.00,0.11
0,37.68,32.91,10.00,13.01,19.55,0.00,2.33,3.55,23.83,0.00,0.00,4.42,14.79,0.00,10.96,2.15,0.00,0.00,0.00,0.00,27.52,15.49,1.96,13.13,19.72,0.00,3.28,1.83,2.87,0.00,0.00,0.11
0,36.44,30.38,8.00,12.32,19.27,0.00,2.33,3.52,23.91,0.00,0.00,4.45,14.45,0.00,10.96,2.07,0.00,0.00,0.00,0.00,27.50,15.49,1.96,13.09,19.84,0.00,1.64,1.83,2.89,0.00,0.00,0.11
0,36.83,30.38,8.00,12.65,19.45,0.00,2.33,3.49,22.77,0.00,0.00,4.09,14.42,0.00,10.96,2.03,0.00,0.00,0.00,0.00,27.27,15.49,1.96,12.97,19.86,0.00,1.64,1.85,2.90,0.00,0.00,0.11
0,35.60,27.85,8.00,12.30,19.83,0.00,2.33,3.59,22.30,0.00,0.00,4.08,15.14,0.00,13.70,2.23,0.00,0.00,0.00,0.00,26.35,14.08,1.96,12.34,19.35,0.00,1.64,1.80,2.96,0.00,0.00,0.11
0,33.71,25.32,8.00,11.67,19.37,0.00,2.33,3.49,21.75,0.00,0.00,3.98,14.75,0.00,12.33,2.18,0.00,0.00,0.00,0.00,25.07,11.27,1.96,11.04,18.49,0.00,1.64,1.67,3.01,0.00,0.00,0.11
0,33.58,25.32,8.00,11.61,19.47,0.00,2.33,3.50,21.56,0.00,0.00,3.95,14.83,0.00,12.33,2.18,0.00,0.00,0.00,0.00,23.06,8.45,0.00,8.96,18.78,0.00,1.64,1.70,3.05,0.00,0.00,0.11
0,32.35,24.05,8.00,11.00,19.07,0.00,2.33,3.21,22.05,0.00,0.00,3.97,15.18,0.00,13.70,2.31,0.00,0.00,0.00,0.00,22.38,7.04,0.00,8.64,18.37,0.00,1.64,1.67,2.89,0.00,0.00,0.10
0,30.01,20.25,6.00,9.59,18.61,0.00,2.33,3.11,22.10,0.00,0.00,3.96,15.22,0.00,15.07,2.28,0.00,0.00,0.00,0.00,20.92,5.63,0.00,6.22,18.09,0.00,1.64,1.64,3.00,0.00,0.00,0.11
0,28.53,17.72,6.00,9.00,18.79,0.00,2.33,3.14,22.24,0.00,0.00,3.94,14.41,0.00,13.70,1.97,0.00,0.00,0.00,0.00,21.34,5.63,0.00,6.33,17.64,0.00,1.64,1.62,3.18,0.00,0.00,0.12
0,27.25,15.19,4.00,8.41,19.31,0.00,2.33,3.33,23.14,0.00,0.00,4.39,14.25,0.00,13.70,1.95,0.00,0.00,0.00,0.00,20.83,4.23,0.00,6.00,17.21,0.00,1.64,1.59,3.16,0.00,0.00,0.12
0,27.45,15.19,4.00,8.39,19.50,0.00,2.33,3.36,22.70,0.00,0.00,4.16,13.78,0.00,12.33,1.83,0.00,0.00,0.00,0.00,20.83,4.23,0.00,5.96,17.10,0.00,1.64,1.54,3.10,0.00,0.00,0.12
0,27.28,15.19,4.00,8.33,19.48,0.00,2.33,3.36,22.33,0.00,0.00,4.08,13.55,0.00,12.33,1.75,0.00,0.00,0.00,0.00,21.22,4.23,0.00,6.15,17.63,0.00,1.64,1.55,3.07,0.00,0.00,0.12
0,27.64,17.72,4.00,8.20,18.56,0.00,0.00,2.81,21.88,0.00,0.00,3.93,13.30,0.00,10.96,1.71,0.00,0.00,0.00,0.00,21.26,4.23,0.00,5.99,17.59,0.00,1.64,1.51,2.99,0.00,0.00,0.11
0,25.73,15.19,4.00,7.42,18.16,0.00,0.00,2.60,21.39,0.00,0.00,3.63,13.03,0.00,10.96,1.67,0.00,0.00,0.00,0.00,20.55,4.23,0.00,5.60,17.85,0.00,3.28,1.54,3.02,0.00,0.00,0.11
0,25.64,15.19,4.00,7.29,17.65,0.00,0.00,2.61,21.67,0.00,0.00,3.66,12.81,0.00,10.96,1.62,0.00,0.00,0.00,0.00,20.03,2.82,0.00,5.29,18.60,0.00,4.92,1.72,2.99,0.00,0.00,0.11
0,26.06,16.46,4.00,7.24,16.91,0.00,0.00,2.37,21.69,0.00,0.00,3.67,12.85,0.00,12.33,1.65,0.00,0.00,0.00,0.00,20.09,2.82,0.00,5.30,18.70,0.00,4.92,1.78,2.91,0.00,0.00,0.11
0,23.97,13.92,0.00,6.64,16.59,0.00,0.00,2.29,21.63,0.00,0.00,3.65,12.67,0.00,12.33,1.66,0.00,0.00,0.00,0.00,18.73,0.00,0.00,4.72,18.49,0.00,3.28,1.77,2.97,0.00,0.00,0.11
0,23.40,12.66,0.00,5.65,16.71,0.00,0.00,2.31,21.94,0.00,0.00,3.70,12.67,0.00,12.33,1.65,0.00,0.00,0.00,0.00,18.33,0.00,0.00,4.51,17.98,0.00,3.28,1.70,2.85,0.00,0.00,0.10
0,22.59,11.39,0.00,5.53,16.86,0.00,0.00,2.37,21.85,0.00,0.00,3.73,12.88,0.00,12.33,1.69,0.00,0.00,0.00,0.00,18.62,0.00,0.00,4.49,17.92,0.00,3.28,1.68,2.87,0.00,0.00,0.10
0,21.86,11.39,0.00,5.06,16.79,0.00,0.00,2.32,22.00,0.00,0.00,3.83,13.16,0.00,12.33,1.73,0.00,0.00,0.00,0.00,18.94,1.41,0.00,4.45,18.06,0.00,4.92,1.75,2.89,0.00,0.00,0.10
0,20.45,8.86,0.00,4.79,16.94,0.00,0.00,2.41,22.61,0.00,0.00,3.96,13.53,0.00,15.07,1.78,0.00,0.00,0.00,0.00,18.17,1.41,0.00,4.25,17.77,0.00,4.92,1.71,2.85,0.00,0.00,0.09
0,19.75,7.59,0.00,4.38,17.04,0.00,0.00,2.45,23.10,0.00,0.00,4.13,13.57,0.00,15.07,1.84,0.00,0.00,0.00,0.00,17.83,1.41,0.00,4.09,17.61,0.00,4.92,1.68,2.80,0.00,0.00,0.09
0,20.03,7.59,0.00,4.44,16.86,0.00,0.00,2.46,22.44,0.00,0.00,4.01,13.23,0.00,13.70,1.73,0.00,0.00,0.00,0.00,17.92,1.41,0.00,4.15,17.88,0.00,6.56,1.68,2.86,0.00,0.00,0.10
0,19.13,6.33,0.00,4.19,17.42,0.00,0.00,2.55,23.05,0.00,0.00,4.22,13.74,0.00,15.07,1.95,0.00,0.00,0.00,0.00,17.56,1.41,0.00,4.10,17.64,0.00,6.56,1.65,2.82,0.00,0.00,0.10
0,19.35,7.59,0.00,4.18,17.36,0.00,0.00,2.57,23.27,0.00,0.00,4.29,13.22,0.00,12.33,1.81,0.00,0.00,0.00,0.00,17.73,1.41,0.00,4.23,17.64,0.00,6.56,1.67,2.80,0.00,0.00,0.10
0,20.28,7.59,0.00,4.47,17.86,0.00,0.00,2.78,23.76,0.00,0.00,4.44,13.26,0.00,12.33,1.78,0.00,0.00,0.00,0.00,18.09,1.41,0.00,4.34,18.15,0.00,6.56,1.77,2.76,0.00,0.00,0.10
0,20.08,7.59,0.00,4.59,17.79,0.00,0.00,2.80,23.88,0.00,0.00,4.42,13.11,0.00,12.33,1.74,0.00,0.00,0.00,0.00,18.35,2.82,0.00,4.58,19.14,0.00,9.84,2.01,2.67,0.00,0.00,0.09
0,20.60,10.13,0.00,4.92,17.75,0.00,0.00,2.80,24.32,0.00,0.00,4.42,12.87,0.00,12.33,1.68,0.00,0.00,0.00,0.00,18.30,2.82,0.00,4.54,19.69,0.00,11.48,2.07,2.79,0.00,0.00,0.10
0,20.97,11.39,0.00,5.03,17.71,0.00,0.00,2.86,23.54,0.00,0.00,4.17,13.08,0.00,13.70,1.79,0.00,0.00,0.00,0.00,19.08,2.82,0.00,4.81,20.79,0.00,14.75,2.34,2.65,0.00,0.00,0.09
0,21.39,11.39,0.00,5.34,18.11,0.00,0.00,2.99,22.76,0.00,0.00,3.86,13.30,0.00,12.33,1.83,0.00,0.00,0.00,0.00,18.71,2.82,0.00,4.68,20.59,0.00,14.75,2.27,2.46,0.00,0.00,0.07
0,21.19,11.39,0.00,5.30,17.85,0.00,0.00,2.89,21.54,0.00,0.00,3.43,13.71,0.00,12.33,1.91,0.00,0.00,0.00,0.00,18.59,2.82,0.00,4.66,20.95,0.00,14.75,2.33,2.42,0.00,0.00,0.07
0,21.85,11.39,0.00,5.43,17.43,0.00,0.00,2.79,22.53,0.00,0.00,3.92,14.03,0.00,15.07,1.98,0.00,0.00,0.00,0.00,18.11,2.82,0.00,4.51,20.74,0.00,14.75,2.31,2.46,0.00,0.00,0.07
0,21.83,11.39,0.00,5.44,17.10,0.00,0.00,2.73,23.16,0.00,0.00,4.32,14.39,0.00,15.07,2.14,0.00,0.00,0.00,0.00,17.85,2.82,0.00,4.48,20.46,0.00,14.75,2.28,2.54,0.00,0.00,0.07
0,21.40,10.13,0.00,5.37,17.41,0.00,0.00,2.79,23.62,0.00,0.00,4.44,14.77,0.00,16.44,2.21,0.00,0.00,0.00,0.00,17.42,2.82,0.00,4.26,21.36,0.00,16.39,2.51,2.57,0.00,0.00,0.07
0,21.08,8.86,0.00,4.93,17.90,0.00,0.00,2.98,23.82,0.00,0.00,4.47,15.21,0.00,17.81,2.36,0.00,0.00,0.00,0.00,16.88,2.82,0.00,4.03,20.88,0.00,14.75,2.46,2.46,0.00,0.00,0.07
0,21.99,8.86,0.00,5.11,17.89,0.00,0.00,2.96,24.29,0.00,0.00,4.91,15.08,0.00,15.07,2.37,0.00,0.00,0.00,0.00,16.55,2.82,0.00,3.95,20.58,0.00,13.11,2.31,2.50,0.00,0.00,0.07
0,22.71,11.39,0.00,5.66,18.01,0.00,0.00,3.00,24.79,0.00,0.00,5.09,14.75,0.00,13.70,2.30,0.00,0.00,0.00,0.00,16.63,2.82,0.00,3.99,20.01,0.00,13.11,2.20,2.75,0.00,0.00,0.09
0,21.00,7.59,0.00,4.81,18.11,0.00,0.00,3.02,25.36,0.00,0.00,5.39,14.84,0.00,15.07,2.37,0.00,0.00,0.00,0.00,16.07,2.82,0.00,3.88,19.36,0.00,13.11,2.14,2.71,0.00,0.00,0.09
0,21.43,7.59,0.00,5.02,18.31,0.00,0.00,3.02,25.13,0.00,0.00,5.42,14.72,0.00,16.44,2.33,0.00,0.00,0.00,0.00,16.51,2.82,0.00,4.00,19.02,0.00,13.11,2.09,2.74,0.00,0.00,0.10
0,21.52,7.59,0.00,4.97,18.19,0.00,0.00,3.04,24.43,0.00,0.00,5.27,15.13,0.00,17.81,2.50,0.00,0.00,0.00,0.00,16.40,2.82,0.00,4.06,20.04,0.00,13.11,2.30,2.75,0.00,0.00,0.10
0,22.04,7.59,0.00,5.15,17.89,0.00,0.00,3.06,24.64,0.00,0.00,5.39,15.26,0.00,19.18,2.59,0.00,0.00,0.00,0.00,15.97,2.82,0.00,3.91,19.21,0.00,11.48,2.21,2.71,0.00,0.00,0.10
0,22.18,7.59,0.00,5.19,17.64,0.00,0.00,3.04,23.84,0.00,0.00,5.22,15.25,0.00,17.81,2.57,0.00,0.00,0.00,0.00,15.43,1.41,0.00,3.71,19.65,0.00,11.48,2.29,2.65,0.00,0.00,0.10
0,22.44,7.59,0.00,5.23,17.54,0.00,0.00,3.06,23.48,0.00,0.00,5.18,15.53,0.00,20.55,2.57,0.00,0.00,0.00,0.00,15.53,1.41,0.00,3.67,19.46,0.00,11.48,2.27,2.78,0.00,0.00,0.10
0,22.09,7.59,0.00,5.15,18.18,0.00,0.00,3.13,24.49,0.00,0.00,5.44,15.46,0.00,20.55,2.56,0.00,0.00,0.00,0.00,15.51,1.41,0.00,3.65,19.66,0.00,9.84,2.36,2.74,0.00,0.00,0.10
0,22.27,7.59,0.00,5.15,17.80,0.00,0.00,3.01,24.35,0.00,0.00,5.35,15.12,0.00,19.18,2.38,0.00,0.00,0.00,0.00,15.21,1.41,0.00,3.42,19.54,0.00,9.84,2.38,2.74,0.00,0.00,0.10
0,22.10,7.59,0.00,5.09,17.24,0.00,0.00,2.92,24.26,0.00,0.00,5.26,15.03,0.00,19.18,2.39,0.00,0.00,0.00,0.00,15.22,1.41,0.00,3.28,20.50,0.00,9.84,2.57,3.02,0.00,0.00,0.12
0,21.28,6.33,0.00,4.67,16.97,0.00,0.00,2.82,23.76,0.00,0.00,5.12,14.88,0.00,19.18,2.35,0.00,0.00,0.00,0.00,14.65,1.41,0.00,3.10,20.32,0.00,9.84,2.47,2.94,0.00,0.00,0.12
0,21.50,6.33,0.00,4.66,16.92,0.00,0.00,2.84,23.82,0.00,0.00,5.18,15.19,0.00,19.18,2.41,0.00,0.00,0.00,0.00,13.78,0.00,0.00,2.66,20.05,0.00,6.56,2.35,2.99,0.00,0.00,0.12
0,20.28,3.80,0.00,4.13,16.87,0.00,0.00,2.84,23.64,0.00,0.00,5.11,15.27,0.00,17.81,2.47,0.00,0.00,0.00,0.00,13.61,0.00,0.00,2.60,19.95,0.00,6.56,2.30,2.96,0.00,0.00,0.12
0,20.84,3.80,0.00,4.28,16.79,0.00,0.00,2.80,23.39,0.00,0.00,5.00,14.96,0.00,16.44,2.34,0.00,0.00,0.00,0.00,12.37,0.00,0.00,2.06,18.80,0.00,1.64,2.05,3.02,0.00,0.00,0.12
0,19.74,2.53,0.00,3.67,16.59,0.00,0.00,2.74,23.30,0.00,0.00,5.01,15.07,0.00,17.81,2.40,0.00,0.00,0.00,0.00,12.03,0.00,0.00,1.94,19.72,0.00,3.28,2.17,3.08,0.00,0.00,0.12
0,19.34,2.53,0.00,3.60,16.68,0.00,0.00,2.80,23.75,0.00,0.00,5.13,14.67,0.00,17.81,2.30,0.00,0.00,0.00,0.00,12.28,0.00,0.00,2.02,19.59,0.00,3.28,2.12,3.10,0.00,0.00,0.12
0,19.80,2.53,0.00,3.84,16.52,0.00,0.00,2.78,23.25,0.00,0.00,4.76,14.62,0.00,16.44,2.33,0.00,0.00,0.00,0.00,12.31,0.00,0.00,2.11,20.12,0.00,3.28,2.17,3.12,0.00,0.00,0.12
0,20.09,5.06,0.00,4.23,16.70,0.00,0.00,2.81,22.94,0.00,0.00,4.27,14.42,0.00,16.44,2.26,0.00,0.00,0.00,0.00,12.49,0.00,0.00,2.13,20.86,0.00,4.92,2.34,3.16,0.00,0.00,0.12
0,20.20,5.06,0.00,4.34,16.51,0.00,0.00,2.74,22.83,0.00,0.00,4.32,14.48,0.00,15.07,2.27,0.00,0.00,0.00,0.00,12.75,0.00,0.00,2.24,19.87,0.00,3.28,2.16,3.16,0.00,0.00,0.12
0,20.02,5.06,0.00,4.51,16.04,0.00,0.00,2.61,22.55,0.00,0.00,4.29,14.09,0.00,13.70,2.16,0.00,0.00,0.00,0.00,12.64,0.00,0.00,2.22,19.62,0.00,3.28,2.06,3.20,0.00,0.00,0.13
0,20.10,5.06,0.00,4.48,15.62,0.00,0.00,2.50,22.03,0.00,0.00,3.82,13.94,0.00,13.70,2.15,0.00,0.00,0.00,0.00,12.39,0.00,0.00,2.14,19.41,0.00,3.28,2.08,3.27,0.00,0.00,0.13
0,19.38,2.53,0.00,4.20,15.48,0.00,0.00,2.40,22.06,0.00,0.00,3.73,14.09,0.00,13.70,2.21,0.00,0.00,0.00,0.00,12.44,0.00,0.00,2.10,19.40,0.00,3.28,2.14,3.14,0.00,0.00,0.12
0,19.65,2.53,0.00,4.25,15.24,0.00,0.00,2.36,21.52,0.00,0.00,3.48,13.84,0.00,12.33,2.14,0.00,0.00,0.00,0.00,13.20,0.00,0.00,2.28,19.42,0.00,3.28,2.14,3.09,0.00,0.00,0.11
0,20.20,3.80,0.00,4.52,15.54,0.00,0.00,2.40,21.41,0.00,0.00,3.32,14.06,0.00,10.96,2.22,0.00,0.00,0.00,0.00,12.91,0.00,0.00,2.22,19.87,0.00,4.92,2.23,3.16,0.00,0.00,0.12
0,20.49,3.80,0.00,4.51,15.66,0.00,0.00,2.52,21.54,0.00,0.00,3.38,13.73,0.00,9.59,2.06,0.00,0.00,0.00,0.00,12.45,0.00,0.00,2.05,19.40,0.00,4.92,2.17,3.16,0.00,0.00,0.12
0,19.61,3.80,0.00,4.34,16.01,0.00,0.00,2.64,21.82,0.00,0.00,3.37,13.46,0.00,8.22,1.95,0.00,0.00,0.00,0.00,12.97,0.00,0.00,2.20,20.29,0.00,6.56,2.31,3.21,0.00,0.00,0.12
0,19.59,3.80,0.00,4.30,16.40,0.00,0.00,2.66,21.73,0.00,0.00,3.23,13.10,0.00,6.85,1.94,0.00,0.00,0.00,0.00,13.45,0.00,0.00,2.46,20.54,0.00,6.56,2.28,3.37,0.00,0.00,0.14
0,19.45,3.80,0.00,4.36,16.39,0.00,0.00,2.70,21.05,0.00,0.00,3.12,12.93,0.00,4.11,1.93,0.00,0.00,0.00,0.00,13.12,0.00,0.00,2.37,20.56,0.00,6.56,2.30,3.29,0.00,0.00,0.13
0,19.88,3.80,0.00,4.42,15.63,0.00,0.00,2.44,21.60,0.00,0.00,3.26,13.12,0.00,5.48,1.97,0.00,0.00,0.00,0.00,12.85,0.00,0.00,2.29,19.89,0.00,6.56,2.17,3.31,0.00,0.00,0.13
0,20.18,5.06,0.00,4.38,15.30,0.00,0.00,2.44,21.49,0.00,0.00,3.25,13.27,0.00,6.85,2.02,0.00,0.00,0.00,0.00,13.17,0.00,0.00,2.40,19.36,0.00,6.56,2.06,3.31,0.00,0.00,0.13
0,20.69,5.06,0.00,4.56,14.88,0.00,0.00,2.37,21.83,0.00,0.00,3.45,13.59,0.00,8.22,2.11,0.00,0.00,0.00,0.00,14.50,1.41,0.00,3.17,18.43,0.00,6.56,1.89,3.07,0.00,0.00,0.11
0,21.95,7.59,0.00,4.95,15.21,0.00,0.00,2.42,21.92,0.00,0.00,3.44,14.23,0.00,9.59,2.31,0.00,0.00,0.00,0.00,15.19,1.41,0.00,3.44,18.96,0.00,8.20,1.93,3.09,0.00,0.00,0.12
0,22.53,7.59,0.00,5.28,14.87,0.00,0.00,2.25,21.98,0.00,0.00,3.39,14.33,0.00,10.96,2.30,0.00,0.00,0.00,0.00,15.74,1.41,0.00,3.78,18.81,0.00,8.20,1.96,3.14,0.00,0.00,0.12
0,23.22,7.59,0.00,5.42,14.81,0.00,0.00,2.23,21.94,0.00,0.00,3.38,14.27,0.00,12.33,2.25,0.00,0.00,0.00,0.00,15.77,1.41,0.00,3.88,19.35,0.00,9.84,2.12,3.17,0.00,0.00,0.12
0,23.14,7.59,0.00,5.36,15.10,0.00,0.00,2.24,22.17,0.00,0.00,3.46,14.18,0.00,10.96,2.29,0.00,0.00,0.00,0.00,17.19,2.82,0.00,4.44,19.47,0.00,9.84,2.13,3.32,0.00,0.00,0.13
0,23.49,7.59,0.00,5.41,15.32,0.00,0.00,2.34,21.84,0.00,0.00,3.46,14.44,0.00,12.33,2.31,0.00,0.00,0.00,0.00,17.72,4.23,0.00,4.84,19.27,0.00,8.20,2.07,3.22,0.00,0.00,0.12
0,23.33,7.59,0.00,5.37,15.25,0.00,0.00,2.23,22.20,0.00,0.00,3.56,14.79,0.00,12.33,2.39,0.00,0.00,0.00,0.00,17.63,4.23,0.00,4.82,18.70,0.00,8.20,2.02,3.29,0.00,0.00,0.13
0,23.86,8.86,0.00,5.65,16.23,0.00,0.00,2.60,21.60,0.00,0.00,3.50,14.74,0.00,10.96,2.30,0.00,0.00,0.00,0.00,18.11,4.23,0.00,5.01,19.35,0.00,8.20,2.16,3.23,0.00,0.00,0.13
0,22.88,7.59,0.00,5.23,16.13,0.00,0.00,2.61,22.73,0.00,0.00,4.06,14.92,0.00,12.33,2.38,0.00,0.00,0.00,0.00,18.12,4.23,0.00,5.12,18.61,0.00,6.56,2.01,3.23,0.00,0.00,0.13
0,23.11,6.33,0.00,5.00,15.76,0.00,0.00,2.54,22.58,0.00,0.00,4.04,15.19,0.00,15.07,2.37,0.00,0.00,0.00,0.00,18.11,4.23,0.00,4.97,18.77,0.00,6.56,2.04,3.26,0.00,0.00,0.13
0,23.29,7.59,0.00,5.01,15.68,0.00,0.00,2.52,23.29,0.00,0.00,4.23,15.88,0.00,17.81,2.52,0.00,0.00,0.00,0.00,18.37,4.23,0.00,5.12,18.83,0.00,6.56,2.04,3.36,0.00,0.00,0.14
0,23.12,7.59,0.00,4.87,16.05,0.00,0.00,2.65,23.29,0.00,0.00,4.21,16.02,0.00,17.81,2.56,0.00,0.00,0.00,0.00,19.21,4.23,0.00,5.35,19.20,0.00,6.56,2.09,3.21,0.00,0.00,0.13
0,23.00,8.86,0.00,4.77,16.44,0.00,0.00,2.86,23.38,0.00,0.00,4.21,16.19,0.00,19.18,2.59,0.00,0.00,0.00,0.00,19.25,4.23,0.00,5.45,19.30,0.00,6.56,2.03,3.18,0.00,0.00,0.12
0,23.38,8.86,0.00,4.75,16.64,0.00,0.00,2.91,23.30,0.00,0.00,4.18,16.20,0.00,19.18,2.55,0.00,0.00,0.00,0.00,19.44,4.23,0.00,5.49,19.50,0.00,6.56,2.06,3.26,0.00,0.00,0.13
0,22.38,7.59,0.00,4.29,17.19,0.00,0.00,3.09,23.92,0.00,0.00,4.61,16.11,0.00,19.18,2.45,0.00,0.00,0.00,0.00,19.97,4.23,0.00,5.57,18.99,0.00,4.92,1.97,3.11,0.00,0.00,0.12
0,22.88,7.59,0.00,4.49,16.80,0.00,0.00,2.98,23.22,0.00,0.00,4.42,16.24,0.00,19.18,2.49,0.00,0.00,0.00,0.00,20.28,4.23,0.00,5.62,19.62,0.00,4.92,2.03,3.18,0.00,0.00,0.13
0,22.83,7.59,0.00,4.36,16.67,0.00,0.00,2.83,22.93,0.00,0.00,4.34,16.28,0.00,19.18,2.49,0.00,0.00,0.00,0.00,19.94,4.23,0.00,5.51,18.35,0.00,3.28,1.74,3.27,0.00,0.00,0.13
0,22.77,7.59,0.00,4.36,16.20,0.00,0.00,2.78,22.92,0.00,0.00,4.31,16.26,0.00,19.18,2.46,0.00,0.00,0.00,0.00,19.09,4.23,0.00,5.28,18.05,0.00,3.28,1.74,3.10,0.00,0.00,0.11
0,23.02,7.59,0.00,4.35,16.36,0.00,0.00,2.79,22.90,0.00,0.00,4.27,16.72,0.00,20.55,2.58,0.00,0.00,0.00,0.00,18.80,4.23,0.00,5.07,18.18,0.00,3.28,1.77,3.24,0.00,0.00,0.12
0,22.73,7.59,0.00,4.25,16.57,0.00,0.00,2.87,22.46,0.00,0.00,4.08,16.39,0.00,19.18,2.49,0.00,0.00,0.00,0.00,19.00,4.23,0.00,5.12,18.79,0.00,4.92,1.85,3.26,0.00,0.00,0.12
0,23.43,8.86,0.00,4.50,17.42,0.00,0.00,2.99,22.37,0.00,0.00,4.02,16.21,0.00,17.81,2.47,0.00,0.00,0.00,0.00,18.60,4.23,0.00,5.06,18.85,0.00,4.92,1.84,3.15,0.00,0.00,0.12
0,23.26,7.59,0.00,4.48,17.64,0.00,0.00,3.02,21.42,0.00,0.00,3.72,15.82,0.00,16.44,2.38,0.00,0.00,0.00,0.00,17.62,2.82,0.00,4.60,19.86,0.00,9.84,1.97,3.21,0.00,0.00,0.12
0,22.83,6.33,0.00,4.49,17.84,0.00,0.00,3.07,20.95,0.00,0.00,3.68,15.71,0.00,16.44,2.33,0.00,0.00,0.00,0.00,16.92,2.82,0.00,4.26,18.91,0.00,8.20,1.85,3.21,0.00,0.00,0.12
0,21.76,5.06,0.00,3.86,17.41,0.00,0.00,3.02,21.68,0.00,0.00,3.77,15.44,0.00,15.07,2.28,0.00,0.00,0.00,0.00,16.62,2.82,0.00,3.92,18.82,0.00,9.84,1.88,3.18,0.00,0.00,0.12
0,21.40,5.06,0.00,3.89,17.21,0.00,0.00,3.00,21.93,0.00,0.00,3.98,15.32,0.00,13.70,2.27,0.00,0.00,0.00,0.00,16.09,2.82,0.00,3.75,18.20,0.00,8.20,1.78,3.30,0.00,0.00,0.12
0,21.28,5.06,0.00,3.92,16.89,0.00,0.00,2.96,22.08,0.00,0.00,4.01,15.16,0.00,15.07,2.18,0.00,0.00,0.00,0.00,15.46,2.82,0.00,3.53,17.57,0.00,8.20,1.61,3.19,0.00,0.00,0.12
0,20.82,5.06,0.00,3.86,17.02,0.00,0.00,2.93,22.01,0.00,0.00,4.01,14.69,0.00,12.33,2.03,0.00,0.00,0.00,0.00,14.36,0.00,0.00,2.89,17.37,0.00,8.20,1.58,3.19,0.00,0.00,0.12
0,21.05,5.06,0.00,3.87,17.25,0.00,0.00,3.02,22.20,0.00,0.00,3.91,14.59,0.00,12.33,2.00,0.00,0.00,0.00,0.00,14.63,0.00,0.00,2.90,17.64,0.00,8.20,1.62,3.23,0.00,0.00,0.12
0,20.21,3.80,0.00,3.50,16.68,0.00,0.00,2.75,21.82,0.00,0.00,3.85,14.64,0.00,12.33,2.08,0.00,0.00,0.00,0.00,14.29,0.00,0.00,2.69,17.24,0.00,8.20,1.53,3.25,0.00,0.00,0.12
0,20.00,3.80,0.00,3.39,16.64,0.00,0.00,2.72,21.11,0.00,0.00,3.35,14.43,0.00,12.33,2.00,0.00,0.00,0.00,0.00,13.98,0.00,0.00,2.54,17.33,0.00,8.20,1.48,3.18,0.00,0.00,0.11
0,20.06,3.80,0.00,3.49,17.24,0.00,0.00,2.90,21.16,0.00,0.00,3.28,14.27,0.00,9.59,2.01,0.00,0.00,0.00,0.00,14.27,0.00,0.00,2.70,17.32,0.00,8.20,1.46,3.08,0.00,0.00,0.11
0,19.30,2.53,0.00,3.23,17.89,0.00,0.00,3.04,21.07,0.00,0.00,3.17,13.59,0.00,6.85,1.84,0.00,0.00,0.00,0.00,14.12,0.00,0.00,2.61,18.18,0.00,9.84,1.65,3.02,0.00,0.00,0.10
0,20.06,3.80,0.00,3.47,18.79,0.00,0.00,3.23,21.42,0.00,0.00,3.41,13.60,0.00,8.22,1.81,0.00,0.00,0.00,0.00,13.73,0.00,0.00,2.50,17.99,0.00,9.84,1.64,3.07,0.00,0.00,0.10
0,20.11,2.53,0.00,3.43,18.96,0.00,0.00,3.27,21.31,0.00,0.00,3.46,13.47,0.00,8.22,1.76,0.00,0.00,0.00,0.00,13.30,0.00,0.00,2.36,17.92,0.00,9.84,1.65,3.13,0.00,0.00,0.10
0,19.79,2.53,0.00,3.39,18.61,0.00,0.00,3.08,21.94,0.00,0.00,3.49,13.47,0.00,8.22,1.76,0.00,0.00,0.00,0.00,12.95,0.00,0.00,2.24,17.61,0.00,9.84,1.63,3.02,0.00,0.00,0.09
0,19.53,2.53,0.00,3.34,18.43,0.00,0.00,3.03,21.63,0.00,0.00,3.16,13.48,0.00,8.22,1.81,0.00,0.00,0.00,0.00,12.23,0.00,0.00,2.01,17.62,0.00,9.84,1.64,3.23,0.00,0.00,0.10
0,18.85,2.53,0.00,3.14,18.10,0.00,0.00,2.94,21.91,0.00,0.00,3.13,13.62,0.00,9.59,1.81,0.00,0.00,0.00,0.00,11.75,0.00,0.00,1.92,17.53,0.00,9.84,1.66,3.29,0.00,0.00,0.11
0,18.51,2.53,0.00,3.08,17.80,0.00,0.00,2.94,22.02,0.00,0.00,3.15,13.79,0.00,10.96,1.87,0.00,0.00,0.00,0.00,11.97,0.00,0.00,1.96,17.61,0.00,9.84,1.68,3.16,0.00,0.00,0.10
0,18.15,2.53,0.00,2.95,17.65,0.00,0.00,2.84,22.11,0.00,0.00,3.24,14.10,0.00,12.33,1.95,0.00,0.00,0.00,0.00,12.21,0.00,0.00,2.03,17.55,0.00,9.84,1.64,3.25,0.00,0.00,0.11
0,17.58,2.53,0.00,2.84,17.65,0.00,0.00,2.83,22.04,0.00,0.00,3.32,13.79,0.00,10.96,1.91,0.00,0.00,0.00,0.00,12.45,0.00,0.00,2.10,17.61,0.00,9.84,1.63,3.15,0.00,0.00,0.10
0,17.16,2.53,0.00,2.76,17.61,0.00,0.00,2.76,22.76,0.00,0.00,3.55,13.96,0.00,12.33,1.93,0.00,0.00,0.00,0.00,12.57,0.00,0.00,2.12,16.81,0.00,8.20,1.52,3.10,0.00,0.00,0.10
0,16.87,1.27,0.00,2.73,17.00,0.00,0.00,2.70,22.52,0.00,0.00,3.58,13.70,0.00,12.33,1.86,0.00,0.00,0.00,0.00,12.99,0.00,0.00,2.45,17.20,0.00,8.20,1.54,3.24,0.00,0.00,0.11
0,16.03,1.27,0.00,2.44,17.10,0.00,0.00,2.69,23.13,0.00,0.00,3.75,13.89,0.00,13.70,1.89,0.00,0.00,0.00,0.00,14.04,1.41,0.00,3.28,16.70,0.00,3.28,1.55,3.23,0.00,0.00,0.10
0,15.15,1.27,0.00,2.24,17.24,0.00,0.00,2.73,22.96,0.00,0.00,3.74,13.89,0.00,15.07,1.87,0.00,0.00,0.00,0.00,14.80,1.41,0.00,3.66,17.37,0.00,3.28,1.62,3.19,0.00,0.00,0.10
0,15.39,1.27,0.00,2.26,17.21,0.00,0.00,2.65,22.67,0.00,0.00,3.68,13.91,0.00,15.07,1.90,0.00,0.00,0.00,0.00,15.84,4.23,0.00,4.39,17.57,0.00,3.28,1.61,3.33,0.00,0.00,0.11
0,15.20,1.27,0.00,2.17,17.60,0.00,0.00,2.78,21.63,0.00,0.00,3.44,13.90,0.00,15.07,1.85,0.00,0.00,0.00,0.00,16.25,4.23,0.00,5.11,17.83,0.00,3.28,1.61,3.23,0.00,0.00,0.11
0,14.71,1.27,0.00,2.03,17.57,0.00,0.00,2.81,21.82,0.00,0.00,3.57,13.72,0.00,13.70,1.83,0.00,0.00,0.00,0.00,16.45,4.23,0.00,5.15,18.43,0.00,3.28,1.69,3.13,0.00,0.00,0.10
0,14.33,1.27,0.00,1.97,18.55,0.00,0.00,3.28,22.05,0.00,0.00,3.62,14.06,0.00,15.07,1.90,0.00,0.00,0.00,0.00,16.21,4.23,0.00,5.25,18.74,0.00,4.92,1.77,3.14,0.00,0.00,0.10
0,14.00,1.27,0.00,1.90,18.27,0.00,0.00,3.20,22.20,0.00,0.00,3.87,14.00,0.00,15.07,1.89,0.00,0.00,0.00,0.00,16.76,4.23,0.00,5.35,18.99,0.00,6.56,1.80,3.11,0.00,0.00,0.10
0,14.47,1.27,0.00,1.97,17.72,0.00,0.00,3.07,22.54,0.00,0.00,4.04,14.41,0.00,17.81,2.04,0.00,0.00,0.00,0.00,17.16,4.23,0.00,5.48,18.93,0.00,6.56,1.81,2.99,0.00,0.00,0.10
0,14.44,1.27,0.00,1.96,17.68,0.00,0.00,3.01,22.28,0.00,0.00,3.99,14.31,0.00,16.44,2.03,0.00,0.00,0.00,0.00,17.54,5.63,0.00,5.77,19.22,0.00,6.56,1.79,2.99,0.00,0.00,0.10
0,13.75,1.27,0.00,1.75,17.51,0.00,0.00,3.01,22.55,0.00,0.00,4.17,14.64,0.00,19.18,2.14,0.00,0.00,0.00,0.00,17.58,5.63,0.00,5.67,18.89,0.00,6.56,1.80,3.11,0.00,0.00,0.10
0,14.31,1.27,0.00,2.01,17.09,0.00,0.00,2.96,22.38,0.00,0.00,4.17,14.54,0.00,19.18,2.05,0.00,0.00,0.00,0.00,17.98,7.04,0.00,6.20,19.01,0.00,6.56,1.73,3.12,0.00,0.00,0.11
0,13.99,1.27,0.00,2.02,16.11,0.00,0.00,2.72,22.09,0.00,0.00,4.01,14.38,0.00,17.81,2.06,0.00,0.00,0.00,0.00,18.22,7.04,0.00,6.51,19.48,0.00,8.20,1.88,3.19,0.00,0.00,0.11
0,13.87,1.27,0.00,2.08,16.16,0.00,0.00,2.81,21.31,0.00,0.00,3.85,14.79,0.00,17.81,2.21,0.00,0.00,0.00,0.00,18.61,7.04,0.00,6.59,18.98,0.00,8.20,1.81,3.10,0.00,0.00,0.11
0,15.44,2.53,0.00,2.61,16.15,0.00,0.00,2.80,21.03,0.00,0.00,3.78,14.87,0.00,17.81,2.26,0.00,0.00,0.00,0.00,18.42,7.04,0.00,6.57,19.23,0.00,8.20,1.82,3.07,0.00,0.00,0.11
0,15.55,2.53,0.00,2.63,16.27,0.00,0.00,2.79,20.73,0.00,0.00,3.70,14.67,0.00,17.81,2.23,0.00,0.00,0.00,0.00,18.56,7.04,0.00,6.65,19.51,0.00,8.20,1.84,3.13,0.00,0.00,0.11
0,15.86,2.53,0.00,2.63,15.64,0.00,0.00,2.63,20.53,0.00,0.00,3.66,14.68,0.00,17.81,2.22,0.00,0.00,0.00,0.00,19.12,7.04,0.00,6.87,19.94,0.00,8.20,1.84,3.02,0.00,0.00,0.11
0,16.93,2.53,0.00,2.92,15.94,0.00,0.00,2.68,20.88,0.00,0.00,3.68,14.71,0.00,16.44,2.22,0.00,0.00,0.00,0.00,19.85,7.04,0.00,7.25,19.79,0.00,8.20,1.83,3.10,0.00,0.00,0.11
0,17.37,2.53,0.00,3.05,16.22,0.00,0.00,2.74,20.64,0.00,0.00,3.60,14.53,0.00,15.07,2.15,0.00,0.00,0.00,0.00,19.67,7.04,0.00,7.20,20.58,0.00,11.48,1.96,3.04,0.00,0.00,0.11
0,19.39,5.06,0.00,3.60,16.27,0.00,0.00,2.76,20.47,0.00,0.00,3.40,14.52,0.00,16.44,2.11,0.00,0.00,0.00,0.00,19.83,7.04,0.00,7.30,20.80,0.00,11.48,1.96,3.13,0.00,0.00,0.11
0,21.40,7.59,0.00,4.90,16.61,0.00,0.00,2.82,20.23,0.00,0.00,3.23,15.16,0.00,15.07,2.28,0.00,0.00,0.00,0.00,20.52,7.04,0.00,7.73,22.57,0.00,16.39,2.34,3.15,0.00,0.00,0.11
0,23.07,10.13,0.00,5.51,17.10,0.00,0.00,3.06,20.58,0.00,0.00,3.18,16.07,0.00,17.81,2.60,0.00,0.00,0.00,0.00,21.10,8.45,0.00,8.21,23.96,3.12,21.31,2.71,3.06,0.00,0.00,0.11
0,23.89,12.66,0.00,5.96,18.31,2.22,0.00,3.90,21.50,0.00,0.00,3.36,17.89,0.00,21.92,3.40,0.00,0.00,0.00,0.00,21.08,7.04,0.00,7.76,24.87,3.12,24.59,2.96,3.49,0.00,0.00,0.16
1,27.27,16.46,4.00,8.41,18.41,2.22,0.00,4.14,24.30,2.56,0.00,4.37,19.15,0.00,23.29,3.72,0.00,0.00,0.00,0.00,21.33,8.45,0.00,7.34,27.02,9.38,27.87,3.76,4.77,0.00,0.00,0.54
1,29.45,18.99,6.00,10.59,19.43,2.22,0.00,4.39,27.96,10.26,0.00,6.03,20.98,0.00,28.77,4.58,0.00,0.00,0.00,0.00,21.97,9.86,1.96,8.72,28.57,12.50,29.51,4.50,7.12,0.00,0.00,1.17
1,32.23,24.05,12.00,12.01,22.20,6.67,2.33,5.50,41.30,17.95,25.00,37.44,22.56,0.00,32.88,5.20,0.00,0.00,0.00,0.00,22.23,9.86,1.96,8.15,34.11,25.00,36.07,6.90,8.91,2.56,0.00,2.90
1,35.96,27.85,16.00,14.63,25.69,11.11,13.95,8.45,43.12,20.51,25.00,42.37,24.73,0.00,38.36,6.11,0.00,0.00,0.00,0.00,24.50,12.68,1.96,10.29,36.18,25.00,44.26,7.54,10.73,5.13,0.00,4.38
1,39.45,31.65,22.00,16.76,27.53,11.11,23.26,9.08,46.19,23.08,25.00,44.54,26.72,0.00,42.47,6.95,0.00,0.00,0.00,0.00,26.52,15.49,3.92,12.88,42.52,31.25,47.54,11.32,14.56,10.26,0.00,7.73
1,43.16,35.44,26.00,19.86,33.12,20.00,30.23,13.57,48.53,25.64,25.00,46.48,26.94,0.00,43.84,7.13,0.00,0.00,0.00,0.00,28.27,19.72,5.88,14.33,46.34,37.50,49.18,13.09,16.33,10.26,0.00,8.78
1,45.93,41.77,28.00,21.47,34.19,20.00,30.23,14.32,50.42,28.21,25.00,47.34,27.84,0.00,45.21,7.34,0.00,0.00,0.00,0.00,29.47,23.94,7.84,15.66,50.68,43.75,54.10,17.30,18.16,10.26,0.00,9.79
1,47.66,44.30,28.00,22.91,35.46,20.00,30.23,14.75,52.83,30.77,25.00,48.15,29.60,0.00,49.32,8.28,0.00,0.00,0.00,0.00,31.29,26.76,9.80,16.94,53.45,46.88,60.66,17.90,19.84,10.26,0.00,10.13
1,50.09,46.84,28.00,24.58,39.77,26.67,34.88,18.23,54.37,30.77,25.00,49.06,29.68,0.00,47.95,8.40,0.00,0.00,0.00,0.00,34.08,30.99,13.73,18.72,56.13,50.00,67.21,18.74,22.47,12.82,0.00,12.39
1,53.40,53.16,32.00,27.00,42.06,26.67,37.21,19.61,56.06,35.90,25.00,49.80,31.07,0.00,52.05,8.94,0.00,0.00,0.00,0.00,35.11,32.39,15.69,19.82,60.25,62.50,72.13,21.10,25.95,15.38,0.00,13.80
1,55.10,55.70,36.00,27.75,44.01,26.67,37.21,20.53,57.03,35.90,25.00,50.14,33.23,2.44,56.16,10.28,0.00,0.00,0.00,0.00,35.05,30.99,15.69,19.40,61.95,65.62,75.41,21.74,27.68,15.38,0.00,14.43
1,56.87,58.23,36.00,28.20,46.93,31.11,41.86,24.89,58.54,38.46,25.00,50.76,33.97,2.44,61.64,10.50,0.00,0.00,0.00,0.00,36.78,35.21,17.65,21.07,64.61,71.87,78.69,22.73,30.05,15.38,0.00,15.36
1,57.34,60.76,38.00,30.11,48.33,31.11,41.86,25.54,59.25,38.46,25.00,51.11,34.39,2.44,63.01,10.65,0.00,0.00,0.00,0.00,37.78,35.21,17.65,21.41,66.51,75.00,83.61,23.27,31.20,15.38,0.00,15.97
1,59.84,63.29,42.00,31.44,52.87,40.00,46.51,29.59,60.22,38.46,25.00,51.39,35.83,2.44,65.75,11.08,0.00,0.00,0.00,0.00,39.13,38.03,19.61,22.44,70.67,84.37,91.80,24.77,32.48,15.38,0.00,16.28
1,60.56,65.82,42.00,31.68,55.05,40.00,48.84,31.20,61.00,38.46,25.00,51.80,36.25,2.44,65.75,11.46,0.00,0.00,0.00,0.00,39.74,39.44,19.61,23.20,73.86,90.62,101.64,25.50,34.45,15.38,0.00,16.98
1,62.84,69.62,44.00,34.24,57.09,42.22,53.49,33.28,60.93,38.46,25.00,51.88,36.77,2.44,68.49,11.77,0.00,0.00,0.00,0.00,40.09,39.44,19.61,23.33,77.47,96.87,108.20,26.98,36.01,15.38,0.00,17.58
1,63.42,69.62,44.00,34.87,58.78,42.22,55.81,34.07,61.12,38.46,25.00,51.99,39.73,4.88,76.71,12.60,0.00,0.00,0.00,0.00,41.56,42.25,19.61,24.19,78.53,96.87,109.84,27.29,37.69,15.38,0.00,18.07
1,65.14,73.42,44.00,36.11,60.75,44.44,58.14,35.20,62.50,41.03,25.00,52.39,42.45,4.88,82.19,13.80,0.00,0.00,0.00,0.00,42.12,42.25,19.61,24.30,80.36,96.87,114.75,27.79,39.58,17.95,0.00,19.09
1,65.33,73.42,44.00,36.55,62.17,46.67,62.79,36.51,63.41,41.03,25.00,53.22,44.12,7.32,86.30,14.48,0.00,0.00,0.00,0.00,42.32,42.25,19.61,24.63,81.48,96.87,119.67,28.03,41.54,20.51,0.00,20.94
1,66.97,73.42,50.00,38.49,64.71,46.67,72.09,37.31,63.54,41.03,25.00,53.31,44.53,7.32,90.41,15.10,0.00,0.00,0.00,0.00,43.62,45.07,19.61,25.24,82.32,96.87,118.03,28.23,42.76,20.51,0.00,21.33
1,69.10,77.22,56.00,39.89,64.92,48.89,72.09,37.73,64.57,41.03,25.00,54.00,45.87,7.32,93.15,15.44,0.00,0.00,0.00,0.00,43.75,45.07,19.61,25.90,82.43,96.87,118.03,28.93,45.29,25.64,0.00,22.59
1,68.35,77.22,54.00,38.59,64.34,46.67,72.09,37.16,63.11,41.03,25.00,53.71,45.86,7.32,93.15,15.62,0.00,0.00,0.00,0.00,43.68,45.07,19.61,25.87,82.65,96.87,116.39,29.66,46.02,25.64,0.00,22.95
1,68.28,77.22,56.00,38.62,64.29,46.67,72.09,37.06,60.68,33.33,25.00,52.45,45.11,7.32,89.04,15.74,0.00,0.00,0.00,0.00,42.50,43.66,17.65,24.84,82.08,90.62,119.67,28.56,45.60,28.21,0.00,22.59
1,67.89,75.95,52.00,39.03,64.09,46.67,72.09,37.44,49.91,25.64,0.00,27.07,44.08,7.32,90.41,14.89,0.00,0.00,0.00,0.00,42.26,43.66,17.65,24.79,77.58,78.12,116.39,26.37,45.40,25.64,0.00,22.31
1,67.06,74.68,50.00,38.19,60.98,40.00,65.12,34.87,46.33,20.51,0.00,16.15,42.93,7.32,87.67,14.54,0.00,0.00,0.00,0.00,40.81,40.85,17.65,23.25,76.87,78.12,116.39,26.09,44.78,23.08,0.00,20.75
1,67.11,75.95,46.00,39.04,58.52,40.00,55.81,34.13,46.25,20.51,0.00,15.66,43.66,7.32,89.04,14.19,0.00,0.00,0.00,0.00,38.84,39.44,15.69,21.07,71.92,71.87,114.75,22.49,43.02,17.95,0.00,18.67
1,63.87,72.15,42.00,36.52,55.86,35.56,53.49,31.16,43.60,15.38,0.00,12.56,42.67,7.32,87.67,13.80,0.00,0.00,0.00,0.00,38.90,38.03,13.73,21.08,69.78,68.75,116.39,21.27,41.89,17.95,0.00,17.02
1,61.32,69.62,38.00,34.50,57.08,37.78,53.49,33.59,42.61,15.38,0.00,12.22,41.88,7.32,84.93,13.66,0.00,0.00,0.00,0.00,40.18,39.44,13.73,22.50,67.38,62.50,118.03,18.08,42.73,20.51,0.00,17.56
1,60.97,65.82,38.00,33.58,57.20,37.78,53.49,33.54,42.12,12.82,0.00,11.99,40.34,7.32,82.19,12.75,0.00,0.00,0.00,0.00,39.89,38.03,11.76,21.77,65.85,59.38,114.75,17.90,42.78,20.51,0.00,17.46
1,60.34,65.82,40.00,33.60,55.31,33.33,48.84,32.30,40.06,12.82,0.00,11.10,40.17,7.32,80.82,12.56,0.00,0.00,0.00,0.00,36.80,32.39,5.88,20.04,63.52,56.25,108.20,17.09,40.91,17.95,0.00,16.15
1,57.03,59.49,36.00,31.41,53.17,31.11,46.51,29.93,38.84,7.69,0.00,10.44,39.79,7.32,79.45,12.39,0.00,0.00,0.00,0.00,35.97,30.99,3.92,18.59,62.38,53.13,111.48,15.87,39.26,15.38,0.00,15.13
1,57.89,58.23,34.00,32.29,52.97,31.11,48.84,29.85,39.40,7.69,0.00,10.93,38.82,4.88,78.08,11.33,0.00,0.00,0.00,0.00,35.95,32.39,3.92,18.64,60.75,46.88,111.48,15.14,38.76,15.38,0.00,15.36
1,56.58,54.43,34.00,31.89,49.78,26.67,44.19,25.43,41.10,7.69,0.00,11.32,38.94,4.88,73.97,11.80,0.00,0.00,0.00,0.00,35.00,29.58,1.96,17.74,60.78,46.88,111.48,14.73,39.69,17.95,0.00,15.90
1,55.97,54.43,32.00,30.22,49.56,26.67,44.19,25.23,39.41,5.13,0.00,10.84,38.77,4.88,73.97,11.89,0.00,0.00,0.00,0.00,33.69,28.17,1.96,16.82,59.55,40.63,109.84,14.42,38.96,17.95,0.00,15.47
1,55.59,53.16,32.00,30.90,48.11,22.22,41.86,23.76,39.20,5.13,0.00,10.55,38.05,4.88,73.97,11.48,0.00,0.00,0.00,0.00,34.67,29.58,1.96,17.12,58.46,34.38,109.84,13.78,38.33,17.95,0.00,15.19
1,54.98,53.16,30.00,30.09,44.20,17.78,37.21,20.43,38.28,5.13,0.00,10.45,37.73,4.88,72.60,11.15,0.00,0.00,0.00,0.00,32.82,25.35,0.00,15.66,56.59,28.12,104.92,13.24,38.19,17.95,0.00,15.19
1,53.33,50.63,30.00,29.52,44.05,15.56,34.88,19.27,39.31,5.13,0.00,10.76,37.62,4.88,72.60,11.10,0.00,0.00,0.00,0.00,33.12,25.35,0.00,15.79,53.99,21.87,100.00,12.13,38.54,20.51,0.00,15.10
1,54.62,54.43,34.00,28.66,43.96,15.56,32.56,19.09,40.48,5.13,0.00,11.82,35.71,2.44,67.12,10.63,0.00,0.00,0.00,0.00,32.30,25.35,0.00,15.29,52.65,21.87,95.08,11.82,40.57,25.64,5.00,18.68
1,53.71,53.16,36.00,28.32,43.93,13.33,30.23,18.96,39.82,5.13,0.00,11.69,32.74,2.44,60.27,9.33,0.00,0.00,0.00,0.00,32.20,25.35,0.00,15.23,52.21,21.87,93.44,11.84,40.76,25.64,5.00,18.99
1,52.54,51.90,36.00,26.96,43.35,11.11,25.58,18.22,38.43,2.56,0.00,11.24,30.85,2.44,54.79,8.63,0.00,0.00,0.00,0.00,33.68,28.17,0.00,15.88,51.01,21.87,86.89,11.52,39.37,20.51,5.00,16.89
1,51.41,51.90,32.00,25.87,42.53,11.11,18.60,18.25,38.43,2.56,0.00,10.93,29.07,0.00,49.32,7.46,0.00,0.00,0.00,0.00,33.66,26.76,0.00,16.01,51.18,21.87,88.52,11.67,39.18,20.51,5.00,16.70
1,49.07,49.37,26.00,23.53,42.47,11.11,18.60,18.49,37.20,2.56,0.00,10.56,28.47,0.00,47.95,7.02,0.00,0.00,0.00,0.00,33.83,28.17,1.96,15.32,49.64,18.75,88.52,10.66,39.22,17.95,5.00,17.96
1,48.35,45.57,24.00,23.74,43.45,13.33,20.93,18.51,39.87,5.13,0.00,12.72,27.19,0.00,43.84,6.52,0.00,0.00,0.00,0.00,34.13,29.58,1.96,15.89,49.16,15.63,90.16,9.87,41.77,23.08,5.00,23.20
1,48.05,45.57,20.00,23.59,43.49,13.33,23.26,18.67,40.17,5.13,0.00,13.11,25.86,0.00,42.47,5.73,0.00,0.00,0.00,0.00,34.13,28.17,1.96,16.01,49.38,15.63,88.52,9.98,42.73,25.64,5.00,24.43
1,46.67,43.04,18.00,21.56,44.78,15.56,23.26,19.37,40.24,5.13,0.00,13.15,25.59,0.00,39.73,5.74,0.00,0.00,0.00,0.00,33.85,26.76,1.96,15.67,48.91,15.63,86.89,10.05,42.73,25.64,5.00,24.80
1,49.49,45.57,22.00,23.87,43.41,13.33,18.60,18.62,40.69,5.13,0.00,13.45,25.22,0.00,41.10,5.57,0.00,0.00,0.00,0.00,33.88,26.76,1.96,15.20,50.46,21.87,88.52,10.94,44.03,30.77,5.00,25.96
1,47.86,43.04,20.00,22.86,45.39,15.56,20.93,19.21,40.81,5.13,0.00,13.51,24.24,0.00,39.73,5.30,0.00,0.00,0.00,0.00,35.00,29.58,1.96,15.89,50.75,21.87,86.89,11.36,44.19,30.77,5.00,26.29
1,48.38,44.30,20.00,22.42,46.29,17.78,20.93,20.39,42.48,7.69,0.00,15.00,24.90,0.00,39.73,5.47,0.00,0.00,0.00,0.00,35.25,29.58,1.96,16.02,51.72,25.00,91.80,11.51,45.37,33.33,5.00,27.61
1,50.25,48.10,22.00,23.49,43.25,11.11,18.60,16.05,40.02,5.13,0.00,13.97,25.16,0.00,42.47,5.40,0.00,0.00,0.00,0.00,33.45,26.76,1.96,13.42,49.35,21.87,88.52,10.37,44.01,30.77,5.00,26.53
1,52.47,50.63,26.00,25.19,42.77,11.11,18.60,15.84,39.43,5.13,0.00,13.83,25.65,0.00,45.21,5.47,0.00,0.00,0.00,0.00,32.05,22.54,1.96,12.78,49.29,21.87,86.89,10.49,43.80,30.77,5.00,26.48
1,51.47,49.37,24.00,23.93,42.00,11.11,18.60,15.73,40.10,5.13,0.00,13.82,24.96,0.00,45.21,5.24,0.00,0.00,0.00,0.00,31.84,22.54,1.96,12.62,49.54,21.87,86.89,10.50,43.17,30.77,5.00,25.95
1,53.00,53.16,26.00,24.40,41.60,11.11,18.60,15.53,40.16,5.13,0.00,13.87,25.23,0.00,46.58,5.47,0.00,0.00,0.00,0.00,31.65,22.54,1.96,12.40,49.30,21.87,81.97,10.64,42.80,30.77,5.00,25.71
1,50.96,51.90,24.00,23.16,40.99,11.11,16.28,15.39,38.73,5.13,0.00,13.02,25.95,0.00,46.58,6.11,0.00,0.00,0.00,0.00,31.25,21.13,1.96,12.43,48.72,18.75,80.33,10.78,43.23,30.77,5.00,26.01
1,52.94,56.96,28.00,23.48,40.43,11.11,16.28,14.79,37.91,5.13,0.00,12.81,25.31,0.00,46.58,5.33,0.00,0.00,0.00,0.00,31.81,22.54,1.96,12.55,48.40,18.75,80.33,10.65,43.47,30.77,5.00,26.27
1,53.34,58.23,30.00,23.63,40.34,11.11,16.28,14.83,37.61,5.13,0.00,12.81,24.74,0.00,47.95,5.08,0.00,0.00,0.00,0.00,31.61,22.54,1.96,12.68,46.05,15.63,75.41,9.84,42.08,28.21,5.00,25.59
1,52.37,56.96,28.00,22.70,41.43,13.33,16.28,15.19,37.72,5.13,0.00,12.73,25.94,0.00,49.32,5.55,0.00,0.00,0.00,0.00,31.38,22.54,1.96,12.54,45.55,15.63,72.13,9.73,42.65,28.21,5.00,25.57
1,53.78,58.23,30.00,24.24,41.30,13.33,16.28,15.15,37.81,5.13,0.00,12.68,25.63,0.00,46.58,5.47,0.00,0.00,0.00,0.00,31.69,22.54,1.96,12.88,43.40,12.50,67.21,9.14,41.60,28.21,5.00,25.44
1,56.50,58.23,32.00,27.13,40.48,13.33,13.95,14.73,37.94,5.13,0.00,12.59,25.55,0.00,46.58,5.40,0.00,0.00,0.00,0.00,31.76,22.54,1.96,13.03,43.25,12.50,68.85,9.08,40.41,28.21,5.00,24.69
1,56.79,58.23,30.00,27.23,41.06,13.33,13.95,14.86,37.01,5.13,0.00,11.90,26.18,0.00,46.58,5.80,0.00,0.00,0.00,0.00,33.49,25.35,1.96,14.24,44.72,15.63,70.49,9.24,37.83,20.51,0.00,21.16
1,55.87,56.96,28.00,26.71,41.40,15.56,18.60,15.27,37.60,5.13,0.00,12.23,26.52,0.00,47.95,5.90,0.00,0.00,0.00,0.00,33.89,25.35,3.92,15.68,47.34,18.75,78.69,10.03,36.52,20.51,0.00,20.64
1,55.56,55.70,28.00,26.80,42.48,22.22,20.93,16.19,37.82,5.13,0.00,12.05,26.80,0.00,49.32,5.97,0.00,0.00,0.00,0.00,32.89,25.35,3.92,15.38,47.59,18.75,78.69,9.95,37.03,20.51,0.00,21.09
1,55.69,54.43,28.00,26.96,44.03,24.44,23.26,17.89,38.65,7.69,0.00,12.01,28.07,0.00,53.42,6.48,0.00,0.00,0.00,0.00,31.42,22.54,3.92,14.59,47.86,18.75,78.69,10.23,39.15,25.64,0.00,21.82
1,56.81,55.70,28.00,27.35,43.90,24.44,25.58,17.71,38.28,10.26,0.00,11.96,26.84,0.00,49.32,6.22,0.00,0.00,0.00,0.00,31.29,23.94,1.96,15.74,47.10,18.75,75.41,9.99,37.00,23.08,0.00,19.68
1,57.58,54.43,30.00,29.94,44.04,24.44,25.58,17.74,37.98,12.82,0.00,12.35,26.82,0.00,49.32,6.22,0.00,0.00,0.00,0.00,31.68,25.35,1.96,16.01,47.78,21.87,78.69,10.32,35.87,20.51,0.00,18.81
1,54.74,50.63,30.00,27.52,42.83,22.22,20.93,17.12,37.24,10.26,0.00,10.00,26.41,0.00,49.32,5.99,0.00,0.00,0.00,0.00,31.34,23.94,1.96,15.58,46.85,21.87,77.05,9.95,33.37,15.38,0.00,13.19
1,56.41,53.16,32.00,29.50,42.93,22.22,20.93,17.39,36.17,10.26,0.00,9.57,25.92,0.00,47.95,5.85,0.00,0.00,0.00,0.00,31.93,25.35,1.96,16.37,46.43,21.87,77.05,9.74,31.57,12.82,0.00,11.96
1,54.45,51.90,30.00,27.35,41.70,20.00,20.93,16.47,35.56,10.26,0.00,9.33,26.22,0.00,45.21,6.06,0.00,0.00,0.00,0.00,32.12,25.35,1.96,16.27,43.67,18.75,70.49,8.45,30.85,7.69,0.00,11.29
1,53.56,49.37,28.00,26.08,41.87,20.00,20.93,16.25,34.53,10.26,0.00,9.15,25.48,0.00,41.10,5.92,0.00,0.00,0.00,0.00,31.08,22.54,1.96,15.94,43.56,15.63,67.21,8.23,29.71,7.69,0.00,10.47
1,54.70,50.63,30.00,26.96,39.82,17.78,18.60,15.35,32.67,7.69,0.00,7.79,24.32,0.00,38.36,5.51,0.00,0.00,0.00,0.00,31.12,23.94,1.96,15.90,41.70,12.50,60.66,7.98,28.37,5.13,0.00,9.20
1,53.86,48.10,30.00,26.90,39.85,17.78,18.60,15.35,34.05,7.69,0.00,8.03,23.89,0.00,35.62,5.48,0.00,0.00,0.00,0.00,30.97,22.54,1.96,15.58,42.29,12.50,60.66,8.23,29.39,5.13,0.00,9.69
1,52.14,44.30,26.00,25.86,40.29,20.00,18.60,15.70,34.10,7.69,0.00,8.39,23.68,0.00,32.88,5.49,0.00,0.00,0.00,0.00,30.60,22.54,1.96,15.52,42.54,12.50,60.66,8.20,28.19,5.13,0.00,9.29
1,52.53,46.84,26.00,25.42,41.36,20.00,20.93,16.29,34.81,7.69,0.00,8.66,23.60,0.00,32.88,5.53,0.00,0.00,0.00,0.00,31.37,25.35,1.96,15.76,42.67,12.50,60.66,8.21,29.32,5.13,0.00,9.85
1,52.07,45.57,24.00,25.61,42.56,20.00,23.26,16.86,33.82,7.69,0.00,8.34,22.76,0.00,30.14,5.33,0.00,0.00,0.00,0.00,32.37,26.76,1.96,16.68,43.51,12.50,63.93,8.48,28.98,5.13,0.00,9.69
1,52.25,46.84,24.00,26.26,42.66,20.00,23.26,16.96,34.10,7.69,0.00,8.43,21.74,0.00,27.40,4.97,0.00,0.00,0.00,0.00,32.21,26.76,1.96,16.56,43.30,9.38,62.30,8.11,27.42,5.13,0.00,9.13
1,52.23,45.57,24.00,25.87,44.39,24.44,27.91,18.51,33.92,7.69,0.00,8.27,21.66,0.00,27.40,4.50,0.00,0.00,0.00,0.00,32.73,28.17,1.96,16.96,43.01,9.38,62.30,7.98,27.50,5.13,0.00,8.77
1,50.53,41.77,20.00,25.45,45.36,24.44,27.91,19.17,32.68,7.69,0.00,7.63,20.78,0.00,23.29,4.32,0.00,0.00,0.00,0.00,32.29,26.76,1.96,16.73,43.62,9.38,65.57,8.05,26.47,5.13,0.00,8.35
1,50.94,43.04,20.00,25.69,44.57,22.22,27.91,18.88,32.38,7.69,0.00,7.62,19.94,0.00,21.92,3.90,0.00,0.00,0.00,0.00,31.82,26.76,1.96,16.64,43.86,9.38,65.57,8.18,27.49,5.13,0.00,8.88
1,51.47,44.30,20.00,25.59,45.03,22.22,27.91,19.39,31.43,7.69,0.00,7.37,19.54,0.00,23.29,3.83,0.00,0.00,0.00,0.00,31.44,25.35,1.96,16.68,43.33,9.38,65.57,8.01,27.45,5.13,0.00,9.01
1,51.16,45.57,22.00,24.30,44.16,22.22,27.91,19.18,31.09,7.69,0.00,7.24,19.43,0.00,23.29,3.77,0.00,0.00,0.00,0.00,31.97,26.76,1.96,17.31,43.11,9.38,62.30,7.94,28.51,5.13,0.00,9.29
1,51.34,48.10,24.00,23.83,43.90,22.22,27.91,19.03,30.21,7.69,0.00,6.86,18.72,0.00,21.92,3.42,0.00,0.00,0.00,0.00,31.37,25.35,1.96,17.36,43.24,9.38,63.93,8.06,29.15,5.13,0.00,9.61
1,50.37,46.84,22.00,23.06,42.68,20.00,23.26,18.26,30.72,7.69,0.00,6.69,19.12,0.00,23.29,3.37,0.00,0.00,0.00,0.00,30.23,23.94,0.00,15.45,39.84,3.12,57.38,7.23,29.35,5.13,0.00,9.45
1,51.50,48.10,24.00,23.73,40.80,15.56,20.93,16.81,31.25,7.69,0.00,7.02,18.72,0.00,21.92,3.32,0.00,0.00,0.00,0.00,29.83,22.54,0.00,15.16,38.46,3.12,54.10,6.97,29.49,5.13,0.00,9.34
1,51.45,49.37,24.00,23.52,38.78,11.11,18.60,14.62,32.04,7.69,0.00,7.42,17.65,0.00,19.18,2.92,0.00,0.00,0.00,0.00,30.91,25.35,0.00,15.83,37.61,3.12,54.10,6.59,29.62,5.13,0.00,9.71
1,53.80,54.43,28.00,25.91,37.35,8.89,13.95,13.83,29.65,2.56,0.00,6.69,17.38,0.00,17.81,2.75,0.00,0.00,0.00,0.00,30.84,23.94,0.00,15.54,37.71,3.12,54.10,6.56,28.25,0.00,0.00,8.91
1,51.94,53.16,24.00,23.73,37.50,8.89,13.95,13.97,29.10,0.00,0.00,6.17,18.10,0.00,21.92,2.92,0.00,0.00,0.00,0.00,29.46,19.72,0.00,13.95,36.98,3.12,49.18,6.40,27.60,0.00,0.00,8.67
1,53.56,55.70,26.00,25.08,37.41,8.89,13.95,14.02,28.50,0.00,0.00,6.18,18.03,0.00,23.29,2.87,0.00,0.00,0.00,0.00,29.34,19.72,0.00,13.69,36.72,3.12,47.54,6.43,27.53,0.00,0.00,8.66
1,53.19,56.96,24.00,23.89,37.69,8.89,13.95,14.22,29.14,0.00,0.00,6.57,18.34,0.00,24.66,2.93,0.00,0.00,0.00,0.00,29.52,18.31,1.96,13.20,38.12,3.12,47.54,6.81,27.38,0.00,0.00,8.42
1,53.08,56.96,24.00,24.07,37.73,8.89,11.63,14.39,29.39,0.00,0.00,6.60,18.00,0.00,23.29,2.71,0.00,0.00,0.00,0.00,29.93,19.72,3.92,14.92,40.53,9.38,54.10,7.57,26.36,0.00,0.00,8.19
1,51.92,56.96,24.00,23.47,37.89,8.89,11.63,14.57,29.16,0.00,0.00,6.28,18.48,0.00,27.40,2.85,0.00,0.00,0.00,0.00,29.27,16.90,3.92,14.27,40.43,9.38,54.10,7.43,26.64,0.00,0.00,8.07
1,51.64,58.23,24.00,23.46,38.32,6.67,9.30,14.40,29.53,0.00,0.00,6.35,18.39,0.00,27.40,2.81,0.00,0.00,0.00,0.00,28.73,16.90,3.92,14.04,40.51,9.38,50.82,7.96,26.23,0.00,0.00,7.90
1,50.00,55.70,20.00,21.76,38.50,8.89,9.30,14.68,30.11,0.00,0.00,6.42,18.88,0.00,30.14,2.92,0.00,0.00,0.00,0.00,28.62,15.49,3.92,13.99,40.50,9.38,50.82,7.91,26.56,2.56,0.00,7.79
1,50.81,56.96,22.00,22.07,38.26,8.89,9.30,14.88,30.24,0.00,0.00,6.64,18.81,0.00,30.14,2.81,0.00,0.00,0.00,0.00,29.51,18.31,3.92,14.34,43.03,15.63,55.74,8.64,27.78,5.13,0.00,8.93
1,52.59,59.49,28.00,24.09,36.89,6.67,6.98,14.35,29.38,0.00,0.00,6.39,19.48,0.00,31.51,3.01,0.00,0.00,0.00,0.00,29.37,19.72,3.92,14.78,42.70,18.75,54.10,8.49,26.83,5.13,0.00,8.45
1,53.55,62.03,28.00,24.53,35.33,6.67,4.65,13.58,30.48,0.00,0.00,6.82,19.05,0.00,31.51,2.89,0.00,0.00,0.00,0.00,28.44,16.90,3.92,13.82,41.36,18.75,52.46,8.32,27.74,5.13,0.00,9.07
1,54.25,60.76,30.00,25.25,35.31,6.67,4.65,13.36,30.85,0.00,0.00,6.93,19.14,0.00,31.51,2.83,0.00,0.00,0.00,0.00,27.65,16.90,3.92,13.40,41.46,18.75,52.46,8.28,28.63,5.13,0.00,9.58
1,55.34,63.29,30.00,25.83,35.29,4.44,4.65,13.19,31.17,0.00,0.00,7.03,18.88,0.00,30.14,2.72,0.00,0.00,0.00,0.00,28.62,16.90,3.92,13.57,41.88,18.75,52.46,8.28,28.76,5.13,0.00,9.70
1,55.81,64.56,30.00,25.98,35.75,4.44,4.65,12.66,31.97,0.00,0.00,7.35,19.62,0.00,34.25,2.85,0.00,0.00,0.00,0.00,27.91,16.90,3.92,13.44,42.63,18.75,50.82,8.81,29.25,5.13,0.00,9.56
1,56.22,65.82,30.00,26.36,36.99,6.67,6.98,14.19,32.72,0.00,0.00,7.62,20.18,0.00,35.62,3.06,0.00,0.00,0.00,0.00,28.41,18.31,3.92,13.56,41.39,18.75,49.18,8.58,30.09,5.13,0.00,10.01
1,59.21,70.89,34.00,28.11,36.82,6.67,9.30,14.28,32.98,0.00,0.00,7.67,20.28,0.00,34.25,3.08,0.00,0.00,0.00,0.00,28.83,19.72,3.92,13.35,41.48,18.75,49.18,8.61,28.82,5.13,0.00,9.48
1,57.57,67.09,30.00,27.87,38.40,8.89,11.63,15.59,33.33,0.00,0.00,7.76,20.26,0.00,32.88,3.04,0.00,0.00,0.00,0.00,30.02,22.54,7.84,14.59,43.09,18.75,55.74,9.00,28.02,5.13,0.00,9.20
1,55.13,63.29,26.00,25.75,39.08,8.89,11.63,16.00,33.67,0.00,0.00,7.94,20.15,0.00,31.51,3.01,0.00,0.00,0.00,0.00,30.05,23.94,7.84,14.64,41.95,18.75,52.46,8.68,28.14,7.69,0.00,9.26
1,56.45,64.56,28.00,28.60,39.55,11.11,13.95,16.86,34.27,0.00,0.00,8.58,20.22,0.00,31.51,3.08,0.00,0.00,0.00,0.00,29.61,22.54,7.84,14.22,43.12,18.75,54.10,8.88,28.87,7.69,0.00,9.79
1,55.69,62.03,26.00,27.97,41.17,13.33,16.28,17.76,34.50,0.00,0.00,8.59,20.64,0.00,32.88,3.14,0.00,0.00,0.00,0.00,29.89,22.54,7.84,13.97,42.77,18.75,55.74,8.60,28.22,7.69,0.00,9.53
1,56.91,64.56,26.00,28.05,41.22,13.33,16.28,18.00,34.81,0.00,0.00,9.01,20.45,0.00,32.88,3.11,0.00,0.00,0.00,0.00,29.42,21.13,7.84,13.59,44.01,18.75,59.02,8.88,28.20,7.69,0.00,9.62
1,55.00,62.03,24.00,26.79,41.46,13.33,16.28,17.94,34.54,0.00,0.00,8.64,21.26,0.00,36.99,3.27,0.00,0.00,0.00,0.00,28.60,19.72,7.84,12.88,43.92,18.75,57.38,8.81,27.32,7.69,0.00,9.32
1,53.22,59.49,22.00,24.59,42.06,15.56,16.28,18.94,33.89,0.00,0.00,8.45,22.57,2.44,34.25,4.34,0.00,0.00,0.00,0.00,29.52,21.13,7.84,13.54,44.12,18.75,59.02,8.95,27.60,7.69,0.00,9.40
1,52.36,56.96,20.00,23.33,42.83,15.56,18.60,19.42,33.98,0.00,0.00,8.49,22.57,2.44,35.62,4.52,0.00,0.00,0.00,0.00,30.64,23.94,7.84,14.80,43.93,15.63,60.66,8.87,28.56,7.69,0.00,9.68
1,54.75,58.23,22.00,25.49,44.17,17.78,23.26,20.41,33.85,0.00,0.00,8.10,22.66,2.44,35.62,4.54,0.00,0.00,0.00,0.00,30.68,23.94,7.84,14.53,42.90,15.63,59.02,8.51,29.62,7.69,0.00,10.57
1,54.23,55.70,22.00,25.08,44.32,20.00,23.26,20.97,35.56,2.56,0.00,9.30,22.59,2.44,34.25,4.56,0.00,0.00,0.00,0.00,28.44,21.13,3.92,11.85,41.86,9.38,55.74,8.07,31.84,12.82,0.00,11.89
1,54.11,54.43,22.00,25.02,45.03,20.00,23.26,21.03,35.59,2.56,0.00,9.43,22.16,2.44,31.51,4.52,0.00,0.00,0.00,0.00,28.54,21.13,3.92,12.17,42.20,9.38,60.66,8.15,31.36,12.82,0.00,11.91
1,54.48,53.16,22.00,25.38,44.78,20.00,23.26,20.78,36.16,5.13,0.00,9.73,23.08,2.44,34.25,4.76,0.00,0.00,0.00,0.00,28.85,21.13,3.92,12.53,41.93,12.50,62.30,7.76,31.23,12.82,0.00,11.79
1,54.88,55.70,22.00,25.16,44.69,20.00,23.26,20.93,36.23,7.69,0.00,10.09,23.22,2.44,34.25,4.85,0.00,0.00,0.00,0.00,29.76,22.54,3.92,12.95,43.13,15.63,65.57,8.27,31.61,12.82,0.00,12.03
1,57.03,56.96,24.00,26.63,46.91,20.00,30.23,21.93,36.84,7.69,0.00,10.29,23.25,2.44,35.62,4.89,0.00,0.00,0.00,0.00,29.84,22.54,3.92,13.43,39.82,9.38,59.02,7.41,30.20,10.26,0.00,11.29
1,55.50,53.16,22.00,25.35,48.46,22.22,32.56,23.17,37.27,7.69,0.00,10.39,22.79,2.44,35.62,4.72,0.00,0.00,0.00,0.00,29.09,19.72,3.92,12.64,39.27,9.38,60.66,7.01,30.31,7.69,0.00,10.61
1,53.09,48.10,20.00,23.84,50.01,24.44,34.88,24.18,36.92,7.69,0.00,10.24,22.86,2.44,36.99,4.60,0.00,0.00,0.00,0.00,30.04,19.72,5.88,12.96,37.87,6.25,57.38,6.44,29.30,7.69,0.00,10.10
1,52.83,46.84,20.00,23.52,50.61,24.44,34.88,24.50,37.20,7.69,0.00,10.42,23.45,2.44,39.73,4.83,0.00,0.00,0.00,0.00,30.15,21.13,7.84,14.23,37.91,6.25,57.38,6.55,28.15,7.69,0.00,9.72
1,53.86,48.10,22.00,24.13,51.21,28.89,34.88,24.90,38.67,10.26,0.00,11.67,23.97,2.44,41.10,5.27,0.00,0.00,0.00,0.00,31.03,23.94,7.84,14.86,38.93,6.25,62.30,6.83,29.92,12.82,0.00,10.99
1,54.35,49.37,26.00,24.28,52.96,28.89,39.53,26.92,39.06,10.26,0.00,11.85,23.64,2.44,38.36,5.21,0.00,0.00,0.00,0.00,30.54,21.13,7.84,14.58,37.27,6.25,60.66,6.08,30.42,12.82,0.00,11.08
1,54.42,49.37,26.00,24.26,52.29,26.67,39.53,25.76,39.92,10.26,0.00,12.08,23.01,2.44,36.99,5.00,0.00,0.00,0.00,0.00,31.77,22.54,7.84,15.00,37.99,6.25,62.30,6.22,31.06,15.38,0.00,12.11
1,52.54,45.57,24.00,23.11,51.08,26.67,37.21,25.20,40.37,10.26,0.00,12.26,23.70,2.44,39.73,5.20,0.00,0.00,0.00,0.00,32.09,22.54,7.84,15.37,37.64,6.25,60.66,6.02,30.72,15.38,0.00,11.82
1,50.24,41.77,20.00,21.16,51.92,28.89,39.53,24.80,40.61,10.26,0.00,12.32,23.14,2.44,39.73,5.10,0.00,0.00,0.00,0.00,30.93,18.31,3.92,14.47,37.21,6.25,57.38,6.15,31.66,15.38,0.00,12.30
1,51.47,45.57,20.00,21.81,51.84,26.67,39.53,24.73,40.70,10.26,0.00,12.21,22.95,2.44,39.73,5.06,0.00,0.00,0.00,0.00,29.90,16.90,3.92,12.78,38.76,6.25,62.30,6.44,31.37,15.38,0.00,12.29
1,50.28,45.57,20.00,20.15,51.80,24.44,39.53,24.59,40.66,10.26,0.00,12.12,22.97,2.44,39.73,5.14,0.00,0.00,0.00,0.00,30.75,18.31,3.92,13.19,38.48,6.25,60.66,6.46,30.20,12.82,0.00,11.44
1,50.76,44.30,22.00,20.18,51.47,22.22,37.21,24.28,39.58,10.26,0.00,11.68,22.65,2.44,38.36,5.04,0.00,0.00,0.00,0.00,31.20,19.72,3.92,14.10,38.90,6.25,60.66,6.62,28.84,12.82,0.00,10.96
1,50.54,43.04,22.00,20.69,50.30,22.22,37.21,23.38,39.33,10.26,0.00,11.80,23.26,2.44,41.10,5.43,0.00,0.00,0.00,0.00,31.51,19.72,3.92,14.39,38.14,6.25,57.38,6.53,29.70,17.95,0.00,11.60
1,48.93,37.97,22.00,20.08,50.14,22.22,37.21,23.49,39.49,10.26,0.00,11.69,22.83,2.44,36.99,5.38,0.00,0.00,0.00,0.00,32.13,22.54,3.92,14.82,38.21,6.25,59.02,6.54,29.60,17.95,0.00,11.33
1,51.26,40.51,24.00,21.52,49.74,22.22,39.53,22.47,41.41,12.82,0.00,12.37,21.22,0.00,36.99,4.39,0.00,0.00,0.00,0.00,31.86,22.54,3.92,14.59,39.01,9.38,59.02,7.06,30.47,17.95,0.00,11.78
1,51.81,43.04,24.00,22.20,49.16,22.22,39.53,22.36,42.26,15.38,0.00,13.83,20.57,0.00,34.25,3.99,0.00,0.00,0.00,0.00,30.90,21.13,3.92,13.57,39.30,9.38,57.38,7.22,30.31,17.95,0.00,12.12
1,48.60,39.24,22.00,20.33,46.50,20.00,32.56,20.32,41.48,15.38,0.00,13.63,20.10,0.00,31.51,3.92,0.00,0.00,0.00,0.00,30.39,19.72,3.92,13.10,39.66,9.38,62.30,7.16,29.38,17.95,0.00,11.44
1,48.40,40.51,22.00,19.48,45.49,17.78,32.56,19.34,38.96,12.82,0.00,12.29,19.86,0.00,31.51,3.86,0.00,0.00,0.00,0.00,30.40,19.72,3.92,13.13,40.01,9.38,62.30,7.23,27.47,12.82,0.00,10.24
1,48.48,41.77,22.00,20.08,46.04,17.78,34.88,19.96,38.69,12.82,0.00,12.17,19.75,0.00,30.14,3.85,0.00,0.00,0.00,0.00,32.21,21.13,3.92,14.21,40.34,12.50,57.38,7.78,26.98,12.82,0.00,9.84
1,48.31,44.30,22.00,19.66,46.91,17.78,37.21,20.30,37.97,10.26,0.00,11.85,19.58,0.00,28.77,3.85,0.00,0.00,0.00,0.00,32.61,22.54,3.92,14.28,40.34,9.38,59.02,7.63,27.93,12.82,0.00,10.30
1,49.52,45.57,24.00,20.28,46.37,17.78,37.21,20.23,36.83,7.69,0.00,11.29,19.45,0.00,27.40,3.71,0.00,0.00,0.00,0.00,32.97,23.94,3.92,14.90,39.78,6.25,55.74,7.61,27.44,12.82,0.00,10.23
1,47.67,40.51,22.00,18.68,44.63,15.56,32.56,18.86,36.64,7.69,0.00,10.96,19.02,0.00,26.03,3.63,0.00,0.00,0.00,0.00,31.70,22.54,3.92,13.92,40.61,6.25,57.38,7.58,27.47,12.82,0.00,10.27
1,47.50,41.77,20.00,18.86,44.12,13.33,30.23,17.85,35.26,7.69,0.00,10.60,19.59,0.00,26.03,3.86,0.00,0.00,0.00,0.00,32.17,23.94,3.92,14.38,41.31,6.25,60.66,7.76,26.62,12.82,0.00,10.02
1,48.04,45.57,22.00,18.87,44.47,17.78,32.56,18.83,34.61,7.69,0.00,10.47,18.91,0.00,20.55,3.81,0.00,0.00,0.00,0.00,33.40,25.35,3.92,15.10,41.99,6.25,60.66,8.05,25.99,12.82,0.00,9.79
1,45.97,43.04,20.00,17.13,44.53,15.56,34.88,18.29,33.09,7.69,0.00,9.97,18.06,0.00,19.18,3.56,0.00,0.00,0.00,0.00,32.32,23.94,0.00,13.62,41.33,6.25,59.02,8.00,26.38,12.82,0.00,9.85
1,43.77,39.24,16.00,16.27,46.78,20.00,39.53,19.76,31.64,5.13,0.00,8.90,17.26,0.00,17.81,3.13,0.00,0.00,0.00,0.00,32.27,23.94,0.00,13.82,41.39,6.25,55.74,8.09,25.03,7.69,0.00,8.32
1,43.18,37.97,12.00,15.94,44.81,20.00,34.88,18.40,31.85,5.13,0.00,8.90,18.21,0.00,20.55,3.33,0.00,0.00,0.00,0.00,33.06,28.17,0.00,14.01,42.12,6.25,59.02,8.33,25.53,7.69,0.00,8.69
1,41.58,32.91,12.00,14.94,44.05,20.00,32.56,18.09,30.52,5.13,0.00,8.30,17.79,0.00,20.55,3.31,0.00,0.00,0.00,0.00,33.89,29.58,0.00,14.71,42.26,6.25,57.38,8.43,23.19,5.13,0.00,7.49
1,41.41,32.91,12.00,14.95,44.69,20.00,32.56,18.02,29.89,5.13,0.00,8.08,17.59,0.00,20.55,3.16,0.00,0.00,0.00,0.00,33.25,28.17,0.00,14.47,43.50,6.25,62.30,8.68,24.26,7.69,0.00,7.15
1,42.35,34.18,12.00,16.12,45.37,22.22,32.56,19.17,30.38,7.69,0.00,8.76,17.79,0.00,21.92,3.26,0.00,0.00,0.00,0.00,33.15,28.17,0.00,14.41,43.05,6.25,62.30,8.58,24.28,10.26,0.00,8.83
1,42.77,34.18,12.00,16.22,45.30,24.44,32.56,19.41,31.36,7.69,0.00,9.22,18.10,0.00,23.29,3.37,0.00,0.00,0.00,0.00,32.86,28.17,0.00,14.33,41.41,6.25,57.38,8.10,26.21,10.26,0.00,9.54
1,42.73,35.44,12.00,15.97,44.24,24.44,27.91,19.16,31.90,10.26,0.00,9.98,18.13,0.00,23.29,3.46,0.00,0.00,0.00,0.00,32.36,28.17,0.00,14.12,40.60,6.25,55.74,7.79,26.77,10.26,0.00,9.74
1,42.89,35.44,10.00,16.65,44.99,24.44,30.23,19.58,32.82,10.26,0.00,10.53,18.79,0.00,24.66,3.54,0.00,0.00,0.00,0.00,30.98,25.35,0.00,13.12,40.21,6.25,54.10,7.81,26.59,10.26,0.00,9.49
1,41.29,35.44,8.00,15.10,44.65,24.44,30.23,19.56,32.36,10.26,0.00,10.16,17.95,0.00,23.29,3.15,0.00,0.00,0.00,0.00,30.55,25.35,0.00,12.90,39.61,6.25,52.46,7.63,25.73,5.13,0.00,8.87
1,40.13,35.44,8.00,14.67,45.03,24.44,30.23,19.84,32.08,10.26,0.00,10.14,17.75,0.00,23.29,3.13,0.00,0.00,0.00,0.00,29.77,23.94,0.00,12.48,39.15,6.25,52.46,7.45,25.67,5.13,0.00,8.87
1,39.86,35.44,8.00,14.48,44.93,22.22,27.91,20.29,31.01,10.26,0.00,10.08,17.49,0.00,21.92,3.08,0.00,0.00,0.00,0.00,30.36,23.94,0.00,12.73,39.59,6.25,52.46,7.60,25.07,5.13,0.00,8.75
1,38.87,34.18,6.00,13.30,47.30,26.67,32.56,22.55,30.45,7.69,0.00,8.77,19.91,4.88,24.66,4.56,0.00,0.00,0.00,0.00,30.92,23.94,0.00,13.35,39.70,3.12,52.46,7.68,23.90,5.13,0.00,7.64
1,37.83,32.91,6.00,12.60,48.42,26.67,32.56,23.12,31.27,7.69,0.00,9.11,20.87,4.88,26.03,5.08,0.00,0.00,0.00,0.00,30.45,23.94,0.00,13.19,40.35,6.25,50.82,7.77,23.40,5.13,0.00,7.47
1,37.37,30.38,6.00,12.40,50.39,28.89,34.88,23.95,32.06,7.69,0.00,9.30,21.36,4.88,31.51,5.14,0.00,0.00,0.00,0.00,31.43,26.76,0.00,13.54,40.44,6.25,49.18,8.13,22.66,5.13,0.00,7.30
1,36.45,29.11,6.00,11.65,51.43,31.11,34.88,30.60,33.17,10.26,0.00,9.46,21.45,4.88,34.25,5.16,0.00,0.00,0.00,0.00,30.36,26.76,1.96,13.14,38.51,3.12,49.18,7.33,21.88,5.13,0.00,6.98
1,38.34,30.38,8.00,14.62,49.77,31.11,32.56,30.00,34.38,10.26,0.00,10.16,21.66,4.88,34.25,5.18,0.00,0.00,0.00,0.00,32.31,28.17,3.92,17.72,38.56,3.12,45.90,7.73,21.30,5.13,0.00,6.86
1,39.71,32.91,10.00,17.60,50.01,31.11,32.56,30.09,34.68,12.82,0.00,10.72,21.92,4.88,35.62,5.33,0.00,0.00,0.00,0.00,36.39,32.39,7.84,23.34,38.31,3.12,45.90,7.57,20.64,5.13,0.00,6.34
1,43.06,39.24,16.00,18.92,51.03,33.33,32.56,30.71,36.03,12.82,0.00,11.31,24.83,9.76,39.73,6.45,0.00,0.00,0.00,0.00,39.69,38.03,9.80,28.11,37.42,3.12,42.62,7.45,20.97,5.13,0.00,6.36
1,46.62,41.77,20.00,24.53,51.46,33.33,34.88,32.67,36.67,12.82,0.00,11.27,26.68,9.76,43.84,8.08,0.00,0.00,0.00,0.00,41.50,39.44,13.73,31.24,37.26,3.12,39.34,7.62,21.73,5.13,0.00,6.54
1,48.82,40.51,24.00,28.49,50.41,31.11,32.56,31.37,36.54,12.82,0.00,11.13,27.57,9.76,46.58,8.49,0.00,0.00,0.00,0.00,43.70,42.25,15.69,34.93,38.07,3.12,42.62,7.47,21.52,5.13,0.00,6.52
1,50.51,43.04,26.00,29.26,51.35,33.33,34.88,32.40,37.43,12.82,0.00,11.40,27.80,9.76,47.95,8.55,0.00,0.00,0.00,0.00,45.86,45.07,17.65,37.00,38.49,3.12,42.62,7.59,20.80,5.13,0.00,6.33
1,54.21,45.57,32.00,32.96,49.23,28.89,30.23,31.34,40.83,15.38,0.00,14.43,28.91,9.76,50.68,8.71,0.00,0.00,0.00,0.00,47.35,47.89,21.57,39.87,36.48,3.12,37.70,7.13,20.00,5.13,0.00,6.20
1,53.59,44.30,32.00,32.91,47.91,24.44,25.58,30.20,39.15,15.38,0.00,14.14,28.59,9.76,49.32,9.10,0.00,0.00,0.00,0.00,47.80,46.48,21.57,41.01,36.01,3.12,34.43,7.11,18.10,5.13,0.00,5.42
1,53.91,45.57,32.00,32.84,47.45,22.22,25.58,29.39,39.55,15.38,0.00,14.07,28.46,9.76,47.95,9.04,0.00,0.00,0.00,0.00,46.15,43.66,21.57,40.16,35.34,3.12,32.79,6.83,17.48,5.13,0.00,5.26
1,55.61,49.37,32.00,33.46,46.59,22.22,25.58,29.44,39.03,15.38,0.00,13.92,28.02,9.76,45.21,8.96,0.00,0.00,0.00,0.00,47.13,43.66,21.57,41.48,34.06,3.12,27.87,6.53,16.91,5.13,0.00,5.10
1,57.11,53.16,34.00,35.79,44.59,20.00,25.58,27.49,37.92,12.82,0.00,13.21,28.53,9.76,45.21,8.99,0.00,0.00,0.00,0.00,47.98,45.07,23.53,44.11,33.80,3.12,27.87,6.48,14.16,0.00,0.00,2.76
1,57.73,54.43,36.00,35.91,43.64,15.56,23.26,26.47,37.78,12.82,0.00,12.96,29.36,9.76,46.58,9.30,0.00,0.00,0.00,0.00,48.71,45.07,23.53,44.74,33.07,3.12,26.23,6.30,12.67,0.00,0.00,2.13
1,58.50,53.16,40.00,36.53,41.89,15.56,23.26,25.25,35.73,10.26,0.00,11.68,28.71,9.76,45.21,9.10,0.00,0.00,0.00,0.00,48.46,45.07,23.53,44.57,32.13,3.12,26.23,6.19,11.23,0.00,0.00,1.77
1,58.92,53.16,42.00,36.13,40.66,15.56,20.93,24.71,35.58,10.26,0.00,11.18,28.17,9.76,43.84,8.93,0.00,0.00,0.00,0.00,49.47,45.07,23.53,44.89,32.06,3.12,24.59,6.18,10.28,0.00,0.00,1.57
1,62.97,56.96,46.00,39.21,39.78,15.56,20.93,24.15,35.44,10.26,0.00,11.17,27.97,9.76,42.47,8.94,0.00,0.00,0.00,0.00,50.24,45.07,23.53,44.91,31.80,3.12,24.59,6.05,9.17,0.00,0.00,1.24
1,65.21,58.23,48.00,41.95,41.06,17.78,23.26,25.26,34.74,10.26,0.00,10.74,27.97,9.76,42.47,8.92,0.00,0.00,0.00,0.00,49.78,43.66,23.53,44.66,32.06,3.12,22.95,6.10,8.28,0.00,0.00,0.97
1,66.85,62.03,48.00,42.75,39.70,17.78,23.26,24.91,34.72,10.26,0.00,10.69,28.01,9.76,42.47,8.84,0.00,0.00,0.00,0.00,50.07,43.66,23.53,45.12,31.10,3.12,21.31,5.95,7.97,0.00,0.00,0.91
0,67.16,63.29,50.00,43.09,36.55,13.33,18.60,21.82,34.01,10.26,0.00,10.60,28.76,9.76,43.84,9.16,0.00,0.00,0.00,0.00,50.83,46.48,23.53,45.80,28.64,3.12,16.39,5.19,7.87,0.00,0.00,0.90
0,67.25,62.03,50.00,42.92,34.83,13.33,18.60,20.75,31.81,7.69,0.00,9.58,26.37,4.88,45.21,7.28,0.00,0.00,0.00,0.00,50.94,46.48,23.53,46.13,28.10,3.12,16.39,4.78,7.31,0.00,0.00,0.82
0,69.58,65.82,52.00,45.25,34.72,13.33,18.60,20.80,31.35,7.69,0.00,9.49,26.23,4.88,42.47,7.28,0.00,0.00,0.00,0.00,52.28,49.30,25.49,47.81,25.62,0.00,13.11,4.07,7.17,0.00,0.00,0.81
0,71.03,68.35,52.00,46.13,28.92,8.89,13.95,11.90,31.00,7.69,0.00,9.40,25.57,4.88,38.36,7.15,0.00,0.00,0.00,0.00,52.49,47.89,25.49,48.19,25.24,0.00,11.48,3.95,6.91,0.00,0.00,0.78
0,69.78,68.35,50.00,44.93,29.28,8.89,13.95,12.04,28.67,5.13,0.00,8.39,25.21,4.88,38.36,7.10,0.00,0.00,0.00,0.00,51.73,46.48,25.49,47.21,24.12,0.00,9.84,3.63,6.60,0.00,0.00,0.75
